TIMESTAMP_MS,PULSE_BPM,SPO2_PCT,PLETH,RED_ADC,IR_ADC
0,97,100,7216,230172,275023
10,97,100,7300,229823,274057
20,97,100,7885,229554,273375
30,97,100,9154,229371,272920
40,97,100,11153,229294,272723
50,97,100,14019,229317,272717
60,97,100,17755,229364,272803
70,97,100,22273,229388,272930
80,97,100,27443,229461,273065
90,97,100,32997,229507,273191
100,97,100,38755,229528,273263
110,97,100,44435,229493,273297
120,97,100,49754,229507,273270
130,97,100,54568,229506,273244
140,97,100,58640,229481,273237
150,97,100,61922,229540,273385
160,97,100,62258,229628,273528
170,97,100,62258,229637,273712
180,97,100,61980,229748,273975
190,97,100,61631,229873,274333
200,97,100,61044,229938,274563
210,97,100,59949,229967,274711
220,97,100,58386,229975,274737
230,97,100,56471,230002,274722
240,97,100,54245,229929,274622
250,97,100,51823,229946,274619
260,97,100,49321,229937,274576
270,97,100,46858,229921,274574
280,97,100,44510,229919,274675
290,97,100,42394,230007,274757
300,97,100,40511,230017,274869
310,97,100,38901,230085,275081
320,97,100,37563,230143,275215
330,97,100,36499,230207,275374
340,97,100,35671,230224,275584
350,97,100,34998,230317,275811
360,97,100,34444,230368,275947
370,97,100,33927,230446,276110
380,97,100,33368,230495,276251
390,97,100,32767,230574,276411
400,97,100,32083,230590,276494
410,97,100,31316,230634,276650
420,97,100,30344,230677,276731
430,97,100,29248,230703,276798
440,97,100,28067,230711,276881
450,97,100,26720,230756,276965
460,97,100,25288,230776,277031
470,97,100,23853,230794,277096
480,97,100,22414,230827,277142
490,97,100,21055,230837,277261
500,97,100,19734,230887,277336
510,97,100,18494,230902,277455
520,97,100,17374,230997,277572
530,97,100,16336,231059,277759
540,97,100,15420,231113,277929
550,97,100,14586,231135,278044
560,97,100,13833,231209,278117
570,97,100,13122,231237,278175
580,97,100,12410,231220,278135
590,97,100,11740,231134,277897
600,97,100,11152,230853,277266
610,97,100,10564,230549,276496
620,97,100,10142,230161,275500
630,97,100,9925,229789,274513
640,97,100,10121,229475,273670
650,97,100,10852,229244,273112
660,97,100,12202,229114,272791
670,97,100,14336,229126,272697
680,97,100,17298,229168,272813
690,97,100,21007,229207,272961
700,97,100,25344,229239,273051
710,97,100,30150,229324,273270
720,97,100,35222,229365,273318
730,97,100,40353,229376,273346
740,97,100,45287,229338,273355
750,97,100,49809,229365,273413
760,97,100,53791,229378,273392
770,97,100,57060,229405,273478
780,97,100,59575,229457,273645
790,97,100,61291,229533,273876
800,97,100,62133,229611,274139
810,97,100,61768,229740,274512
820,97,100,61361,229812,274755
830,97,100,60342,229924,274981
840,97,100,58713,229986,275017
850,97,100,56678,229965,275095
860,97,100,54317,229921,274960
870,97,100,51672,229912,274881
880,97,100,48944,229883,274845
890,97,100,46214,229890,274859
900,97,100,43562,229921,274889
910,97,100,41111,229944,275027
920,97,100,38942,229987,275144
930,97,100,37055,230053,275319
940,97,100,35534,230094,275440
950,97,100,34298,230171,275674
960,97,100,33347,230185,275845
970,97,100,32601,230316,276073
980,97,100,31976,230372,276218
990,97,100,31432,230390,276380
1000,97,100,30887,230462,276536
1010,97,100,30297,230576,276721
1020,97,100,29622,230595,276864
1030,97,100,28860,230634,276970
1040,97,100,27970,230677,277090
1050,97,100,26867,230733,277240
1060,97,100,25591,230743,277249
1070,97,100,24186,230796,277353
1080,97,100,22735,230820,277393
1090,97,100,21154,230886,277542
1100,97,100,19656,230849,277505
1110,97,100,18156,230898,277612
1120,97,100,16654,230920,277719
1130,97,100,15279,230983,277813
1140,97,100,14031,231033,277950
1150,97,100,12910,231092,278060
1160,97,100,11917,231091,278151
1170,97,100,11053,231163,278290
1180,97,100,10274,231227,278440
1190,97,100,9581,231285,278625
1200,97,100,8930,231305,278702
1210,97,100,8366,231356,278788
1220,97,100,7845,231380,278807
1230,97,100,7239,231368,278802
1240,97,100,6677,231258,278435
1250,97,100,6115,231007,277831
1260,97,100,5597,230644,276930
1270,97,100,5208,230305,275913
1280,97,100,5119,229862,274889
1290,97,100,5457,229593,274125
1300,97,100,6351,229363,273540
1310,97,100,7970,229295,273291
1320,97,100,10444,229249,273211
1330,97,100,13774,229289,273296
1340,97,100,17833,229357,273404
1350,97,100,22584,229436,273600
1360,97,100,27861,229450,273662
1370,97,100,33371,229507,273779
1380,97,100,38900,229481,273816
1390,97,100,44183,229551,273867
1400,97,100,48999,229543,273890
1410,97,100,53254,229535,273923
1420,97,100,56773,229597,274008
1430,97,100,59422,229630,274234
1440,97,100,61288,229721,274447
1450,97,100,62258,229831,274752
1460,97,100,62258,229937,275057
1470,97,100,61657,230068,275341
1480,97,100,60413,230090,275525
1490,97,100,58655,230134,275541
1500,97,100,56341,230125,275472
1510,97,100,53685,230103,275426
1520,97,100,50814,230067,275413
1530,97,100,47813,230041,275317
1540,97,100,44852,229999,275353
1550,97,100,42015,230052,275406
1560,97,100,39432,230118,275519
1570,97,100,37102,230165,275647
1580,97,100,35199,230250,275846
1590,97,100,33594,230299,275999
1600,97,100,32331,230357,276197
1610,97,100,31369,230446,276370
1620,97,100,30623,230490,276544
1630,97,100,30005,230544,276698
1640,97,100,29517,230581,276881
1650,97,100,28983,230666,277046
1660,97,100,28448,230698,277150
1670,97,100,27778,230792,277300
1680,97,100,27019,230799,277431
1690,97,100,26124,230868,277586
1700,97,100,25005,230883,277639
1710,97,100,23750,230939,277716
1720,97,100,22360,230969,277820
1730,97,100,20833,231003,277890
1740,97,100,19304,231013,277939
1750,97,100,17728,231043,278049
1760,97,100,16196,231075,278087
1770,97,100,14708,231095,278180
1780,97,100,13353,231144,278322
1790,97,100,12088,231201,278350
1800,97,100,10957,231262,278543
1810,97,100,9961,231289,278597
1820,97,100,9100,231342,278752
1830,97,100,8284,231405,278926
1840,97,100,7559,231438,279028
1850,97,100,6924,231483,279152
1860,97,100,6335,231509,279184
1870,97,100,5746,231511,279196
1880,97,100,5159,231414,279020
1890,97,100,4617,231246,278559
1900,97,100,4076,230969,277839
1910,97,100,3626,230658,276922
1920,97,100,3445,230261,275952
1930,97,100,3534,229924,275045
1940,97,100,4161,229661,274348
1950,97,100,5415,229515,273912
1960,97,100,7430,229451,273685
1970,97,100,10295,229446,273715
1980,97,100,14057,229492,273815
1990,97,100,18586,229540,273955
2000,97,100,23706,229590,274099
2010,97,100,29245,229659,274241
2020,97,100,34893,229692,274317
2030,97,100,40560,229731,274384
2040,97,100,45786,229747,274415
2050,97,100,50519,229778,274470
2060,97,100,54526,229755,274569
2070,97,100,57669,229849,274688
2080,97,100,59946,229923,274884
2090,97,100,61311,229994,275145
2100,97,100,61671,230086,275508
2110,97,100,61271,230210,275776
2120,97,100,60286,230248,275955
2130,97,100,58675,230296,276053
2140,97,100,56437,230329,276054
2150,97,100,53888,230286,275974
2160,97,100,50979,230281,275942
2170,97,100,47980,230239,275897
2180,97,100,44932,230269,275890
2190,97,100,41971,230261,275954
2200,97,100,39228,230327,276051
2210,97,100,36750,230371,276179
2220,97,100,34626,230428,276324
2230,97,100,32858,230477,276444
2240,97,100,31402,230550,276645
2250,97,100,30259,230599,276824
2260,97,100,29387,230669,277019
2270,97,100,28694,230715,277171
2280,97,100,28183,230793,277349
2290,97,100,27670,230786,277480
2300,97,100,27156,230888,277691
2310,97,100,26548,230921,277764
2320,97,100,25800,230991,277885
2330,97,100,24912,230985,278055
2340,97,100,23836,231050,278107
2350,97,100,22620,231098,278201
2360,97,100,21308,231135,278272
2370,97,100,19808,231155,278333
2380,97,100,18214,231207,278395
2390,97,100,16664,231218,278493
2400,97,100,15067,231275,278572
2410,97,100,13562,231282,278649
2420,97,100,12103,231300,278800
2430,97,100,10785,231376,278852
2440,97,100,9561,231402,279041
2450,97,100,8431,231480,279139
2460,97,100,7488,231540,279322
2470,97,100,6640,231565,279415
2480,97,100,5886,231622,279541
2490,97,100,5227,231601,279593
2500,97,100,4615,231627,279604
2510,97,100,3958,231648,279512
2520,97,100,3302,231476,279152
2530,97,100,3276,231193,278440
2540,97,100,3276,230887,277591
2550,97,100,3276,230475,276571
2560,97,100,3365,230170,275618
2570,97,100,3855,229869,274839
2580,97,100,5060,229645,274332
2590,97,100,6979,229572,274094
2600,97,100,9745,229547,274050
2610,97,100,13360,229606,274131
2620,97,100,17784,229657,274247
2630,97,100,22840,229687,274357
2640,97,100,28358,229741,274530
2650,97,100,34164,229788,274569
2660,97,100,39900,229805,274671
2670,97,100,45333,229787,274636
2680,97,100,50275,229817,274701
2690,97,100,54585,229852,274687
2700,97,100,58033,229871,274843
2710,97,100,60663,229933,274969
2720,97,100,62258,230050,275193
2730,97,100,61913,230137,275524
2740,97,100,61537,230277,275888
2750,96,100,60987,230333,276110
2760,96,100,59760,230415,276290
2770,96,100,57941,230430,276315
2780,96,100,55742,230448,276315
2790,96,100,53163,230373,276162
2800,96,100,50371,230362,276103
2810,96,100,47536,230295,276074
2820,96,100,44740,230325,276068
2830,96,100,42025,230335,276162
2840,96,100,39603,230429,276330
2850,96,100,37432,230481,276403
2860,96,100,35597,230545,276613
2870,96,100,34141,230603,276805
2880,96,100,32939,230675,276917
2890,96,100,32034,230734,277118
2900,96,100,31385,230764,277298
2910,96,100,30819,230805,277388
2920,96,100,30339,230906,277651
2930,96,100,29856,230938,277745
2940,96,100,29329,230978,277906
2950,96,100,28669,231059,278029
2960,96,100,27876,231093,278138
2970,96,100,26906,231126,278267
2980,96,100,25846,231162,278347
2990,96,100,24651,231211,278397
3000,96,100,23322,231248,278472
3010,96,100,21902,231286,278573
3020,96,100,20436,231298,278622
3030,96,100,18967,231327,278686
3040,96,100,17541,231368,278759
3050,96,100,16158,231398,278845
3060,96,100,14863,231413,278925
3070,96,100,13655,231476,279069
3080,96,100,12580,231525,279175
3090,96,100,11638,231565,279300
3100,96,100,10785,231628,279472
3110,96,100,10065,231674,279517
3120,96,100,9390,231709,279604
3130,96,100,8804,231719,279697
3140,96,100,8219,231735,279626
3150,96,100,7679,231631,279339
3160,96,100,7139,231390,278809
3170,96,100,6688,231074,277992
3180,96,100,6371,230697,276971
3190,96,100,6321,230300,275955
3200,96,100,6671,229977,275110
3210,96,100,7553,229738,274447
3220,96,100,9145,229658,274142
3230,96,100,11580,229611,274060
3240,96,100,14906,229629,274031
3250,96,100,19034,229648,274175
3260,96,100,23883,229726,274351
3270,96,100,29234,229789,274402
3280,96,100,34918,229819,274528
3290,96,100,40665,229818,274572
3300,96,100,46245,229836,274559
3310,96,100,51381,229862,274606
3320,96,100,55934,229886,274543
3330,96,100,59763,229849,274604
3340,96,100,62258,229887,274685
3350,96,100,62258,229970,274894
3360,96,100,62258,230052,275156
3370,96,100,62141,230168,275489
3380,96,100,61869,230271,275768
3390,96,100,61052,230339,275991
3400,96,100,59770,230365,276099
3410,96,100,58023,230369,276078
3420,96,100,55927,230343,275978
3430,96,100,53560,230325,275944
3440,96,100,51115,230336,275858
3450,96,100,48553,230295,275811
3460,96,100,46144,230306,275865
3470,96,100,43889,230337,275923
3480,96,100,41825,230392,276057
3490,96,100,40071,230416,276159
3500,96,100,38588,230487,276356
3510,96,100,37377,230548,276532
3520,96,100,36516,230599,276749
3530,96,100,35772,230698,276880
3540,96,100,35223,230718,277052
3550,96,100,34791,230816,277221
3560,96,100,34357,230883,277357
3570,96,100,33882,230894,277490
3580,96,100,33366,230985,277654
3590,96,100,32647,231026,277736
3600,96,100,31846,231070,277884
3610,96,100,30921,231049,277893
3620,96,100,29791,231118,277970
3630,96,100,28578,231139,278053
3640,96,100,27239,231141,278117
3650,96,100,25897,231187,278143
3660,96,100,24511,231228,278285
3670,96,100,23203,231265,278351
3680,96,100,21893,231263,278409
3690,96,100,20620,231307,278537
3700,96,100,19427,231401,278591
3710,96,100,18437,231438,278778
3720,96,100,17526,231458,278832
3730,96,100,16696,231525,279038
3740,96,100,15988,231547,279095
3750,96,100,15362,231627,279188
3760,96,100,14776,231616,279275
3770,96,100,14190,231667,279292
3780,96,100,13645,231592,279137
3790,96,100,13058,231440,278742
3800,96,100,12554,231027,277998
3810,96,100,12132,230777,277056
3820,96,100,11874,230420,276018
3830,96,100,11944,230046,275003
3840,96,100,12466,229735,274269
3850,96,100,13563,229538,273840
3860,96,100,15400,229464,273589
3870,96,100,18061,229466,273609
4760,95,100,39313,230127,275958
4770,95,100,37828,230227,276202
4780,95,100,36646,230287,276347
4790,95,100,35768,230332,276543
4800,95,100,35080,230400,276574
4810,95,100,34505,230476,276924
4820,95,100,34005,230528,277085
4830,95,100,33581,230574,277245
4840,95,100,33078,230645,277386
4850,95,100,32495,230737,277577
4860,95,100,31792,230745,277732
4870,95,100,30892,230818,277827
4880,95,100,29871,230851,277857
4890,95,100,28690,230878,277931
4900,95,100,27426,230890,277878
4910,95,100,26042,230945,278097
4920,95,100,24575,230941,278155
4930,95,100,23104,230961,278209
4940,95,100,21631,230987,278297
4950,95,100,20195,231024,278404
4960,95,100,18875,231049,278492
4970,95,100,17673,231134,278600
4980,95,100,16589,231151,278680
4990,95,100,15623,231187,278796
5000,95,100,14776,231220,278968
5010,95,100,14007,231277,279098
5020,95,100,13318,231368,279263
5030,95,100,12749,231398,279382
5040,95,100,12219,231444,279455
5050,95,100,11689,231512,279496
5060,95,100,11199,231439,279433
5070,95,100,10670,231390,279217
5080,95,100,10141,231143,278664
5090,95,100,9612,230863,277798
5100,95,100,9243,230474,276792
5110,95,100,9035,230082,275792
5120,95,100,9185,229736,274910
5130,95,100,9855,229523,274284
5140,95,100,11244,229387,273926
5150,95,100,13352,229338,273834
5160,95,100,16261,229350,273832
5170,95,100,19933,229383,273879
5180,95,100,24254,229439,274079
5190,95,100,29107,229501,274191
5200,95,100,34258,229529,274323
5210,95,100,39508,229576,274392
5220,95,100,44569,229596,274464
5230,95,100,49273,229605,274444
5240,95,100,53374,229608,274476
5250,95,100,56866,229623,274546
5260,95,100,59586,229669,274691
5270,95,100,61533,229779,274942
5280,95,100,62258,229835,275216
5290,95,100,62258,229982,275556
5300,95,100,61864,230065,275793
5310,95,100,60880,230135,275977
5320,95,100,59305,230114,276027
5330,95,100,57299,230150,276019
5340,95,100,54939,230107,275909
5350,95,100,52343,230063,275845
5360,95,100,49628,230040,275773
5370,95,100,46911,230088,275793
5380,95,100,44310,230110,275901
5390,95,100,41982,230114,276017
5400,95,100,39847,230129,276117
5410,95,100,38026,230220,276199
5420,95,100,36558,230265,276461
5430,95,100,35366,230343,276605
5440,95,100,34489,230378,276797
5450,95,100,33770,230440,276998
5460,95,100,33250,230508,277181
5470,95,100,32807,230582,277306
5480,95,100,32363,230634,277502
5490,95,100,31877,230712,277568
5500,95,100,31349,230717,277756
5510,95,100,30656,230778,277876
5520,95,100,29757,230848,278018
5530,95,100,28734,230905,278100
5540,95,100,27544,230876,278175
5550,95,100,26228,230922,278218
5560,95,100,24785,230960,278312
5570,95,100,23340,230991,278404
5580,95,100,21810,231064,278493
5590,95,100,20400,231051,278524
5600,95,100,18988,231115,278642
5610,95,100,17658,231133,278713
5620,95,100,16449,231161,278809
5630,95,100,15364,231234,278922
5640,95,100,14360,231274,279111
5650,95,100,13480,231326,279243
5660,95,100,12683,231384,279369
5670,95,100,12010,231412,279500
5680,95,100,11378,231485,279628
5690,95,100,10788,231518,279742
5700,95,100,10198,231527,279733
5710,95,100,9609,231522,279632
5720,95,100,9061,231376,279238
5730,95,100,8473,231099,278630
5740,95,100,7968,230768,277720
5750,95,100,7629,230405,276747
5760,95,100,7580,230047,275799
5770,95,100,7947,229758,275002
5780,95,100,8811,229531,274473
5790,95,100,10420,229471,274242
5800,95,100,12859,229396,274104
5810,95,100,16088,229431,274176
5820,95,100,20068,229504,274328
5830,95,100,24679,229542,274465
5840,95,100,29760,229635,274605
5850,95,100,35068,229682,274690
5860,95,100,40352,229680,274777
5870,95,100,45397,229722,274813
5880,95,100,50028,229736,274783
5890,95,100,54073,229725,274853
5900,95,100,57361,229776,275039
5910,95,100,59848,229820,275175
5920,95,100,61491,229948,275430
5930,95,100,62258,230011,275712
5940,95,100,62258,230122,276087
5950,95,100,61589,230215,276260
5960,95,100,60335,230266,276468
5970,95,100,58540,230271,276434
5980,95,100,56244,230263,276437
5990,95,100,53614,230241,276298
6000,95,100,50817,230202,276267
6010,95,100,47935,230215,276188
6020,95,100,45092,230220,276254
6030,95,100,42454,230271,276305
6040,95,100,40022,230274,276463
6050,95,100,37921,230352,276557
6060,95,100,36195,230430,276714
6070,95,100,34760,230427,276881
6080,95,100,33659,230516,277122
6090,95,100,32852,230563,277237
6100,95,100,32213,230600,277475
6110,95,100,31741,230691,277594
6120,95,100,31311,230732,277757
6130,95,100,30880,230779,277929
6140,95,100,30361,230868,278119
6150,95,100,29711,230916,278235
6160,95,100,28887,231023,278419
6170,95,100,27973,231007,278451
6180,95,100,26841,231029,278558
6190,95,100,25576,231030,278568
6200,95,100,24177,231065,278675
6210,95,100,22646,231085,278729
6220,95,100,21112,231147,278793
6230,95,100,19531,231169,278872
6240,95,100,17993,231234,279016
6250,95,100,16584,231223,279073
6260,95,100,15261,231276,279172
6270,95,100,14025,231299,279239
6280,95,100,12920,231380,279376
6290,95,100,11947,231407,279494
6300,95,100,11105,231464,279657
6310,95,100,10350,231521,279777
6320,95,100,9684,231587,279916
6330,95,100,9106,231616,280018
6340,95,100,8528,231635,280030
6350,95,100,7951,231623,279935
6360,95,100,7374,231504,279656
6370,95,100,6798,231192,279037
6380,95,100,6267,230946,278200
6390,95,100,5955,230544,277143
6400,95,100,5907,230191,276175
6410,95,100,6298,229886,275370
6420,95,100,7214,229668,274754
6430,95,100,8874,229519,274447
6440,95,100,11411,229484,274388
6450,95,100,14783,229530,274430
6460,95,100,18947,229574,274536
6470,95,100,23777,229613,274679
6480,95,100,29192,229708,274784
6490,95,100,34846,229729,274892
6500,95,100,40563,229733,274939
6510,95,100,46027,229734,274894
6520,95,100,51143,229743,274943
6530,95,100,55638,229764,274928
6540,95,100,59287,229753,275017
6550,95,100,62133,229849,275173
6560,95,100,62258,229901,275352
6570,95,100,62258,229993,275675
6580,95,100,62258,230088,275969
6590,95,100,61901,230236,276281
6600,95,100,60948,230264,276523
6610,95,100,59480,230312,276593
6620,95,100,57577,230351,276599
6630,95,100,55277,230306,276464
6640,95,100,52700,230258,276431
6650,95,100,50003,230242,276340
6660,95,100,47304,230254,276354
6670,95,100,44722,230286,276385
6680,95,100,42296,230305,276523
6690,95,100,40105,230375,276623
6700,95,100,38229,230375,276737
6710,95,100,36709,230437,276897
6720,95,100,35508,230494,277039
6730,95,100,34503,230570,277279
6740,95,100,33778,230675,277426
6750,94,100,33172,230720,277630
6760,94,100,32726,230797,277802
6770,94,100,32279,230831,277922
6780,94,100,31870,230878,278072
6790,94,100,31296,230983,278199
6800,94,100,30639,230961,278263
6810,94,100,29815,231009,278369
6820,94,100,28866,231054,278463
6830,94,100,27748,231073,278562
6840,94,100,26505,231130,278616
6850,94,100,25216,231115,278693
6860,94,100,23842,231157,278721
6870,94,100,22424,231196,278788
6880,94,100,21044,231213,278896
6890,94,100,19704,231238,278954
6900,94,100,18445,231285,279028
6910,94,100,17268,231352,279144
6920,94,100,16215,231361,279263
6930,94,100,15285,231447,279396
6940,94,100,14481,231473,279536
6950,94,100,13759,231537,279666
6960,94,100,13079,231560,279742
6970,94,100,12524,231615,279810
6980,94,100,11927,231612,279794
6990,94,100,11414,231543,279531
7000,94,100,10902,231292,278999
7010,94,100,10431,230986,278208
7020,94,100,10128,230635,277202
7030,94,100,9992,230232,276188
7040,94,100,10191,229928,275318
7050,94,100,10934,229663,274700
7060,94,100,12347,229554,274357
7070,94,100,14515,229485,274254
7080,94,100,17480,229519,274246
7090,94,100,21205,229560,274320
7100,94,100,25609,229571,274455
7110,94,100,30489,229646,274601
7120,94,100,35767,229681,274667
7130,94,100,41147,229711,274739
7140,94,100,46326,229687,274755
7150,94,100,51171,229724,274694
7160,94,100,55424,229682,274684
7170,94,100,59037,229724,274748
7180,94,100,61883,229746,274886
7190,94,100,62258,229821,275061
7200,94,100,62258,229891,275275
7210,94,100,62258,230007,275591
7220,94,100,62068,230092,275875
7230,94,100,61350,230159,276123
7240,94,100,60102,230239,276223
7250,94,100,58440,230236,276248
7260,94,100,56400,230247,276213
7270,94,100,54135,230213,276141
7280,94,100,51719,230174,276030
7290,94,100,49264,230160,276029
7300,94,100,46883,230204,276068
7310,94,100,44614,230197,276126
7320,94,100,42569,230286,276270
7330,94,100,40788,230322,276390
7340,94,100,39308,230377,276537
7350,94,100,38093,230422,276767
7360,94,100,37142,230480,276921
7370,94,100,36381,230553,277110
7380,94,100,35771,230607,277253
7390,94,100,35275,230680,277390
7400,94,100,34816,230696,277550
7410,94,100,34316,230799,277715
7420,94,100,33737,230846,277851
7430,94,100,33078,230890,277967
7440,94,100,32300,230918,278033
7450,94,100,31362,230969,278126
7460,94,100,30304,230980,278171
7470,94,100,29124,231023,278226
7480,94,100,27863,231040,278340
7490,94,100,26519,231084,278414
7500,94,100,25211,231072,278476
7510,94,100,23899,231163,278535
7520,94,100,22585,231170,278610
7530,94,100,21348,231202,278704
7540,94,100,20187,231249,278790
7550,94,100,19144,231300,278939
7560,94,100,18258,231319,279021
7570,94,100,17450,231367,279207
7580,94,100,16721,231404,279278
7590,94,100,16111,231479,279429
7600,94,100,15500,231503,279460
7610,94,100,14969,231497,279547
7620,94,100,14438,231558,279516
7630,94,100,13906,231445,279324
7640,94,100,13375,231220,278707
7650,94,100,12923,230900,277872
7660,94,100,12511,230480,276849
7670,94,100,12339,230114,275823
7680,94,100,12526,229725,274901
7690,94,100,13233,229490,274287
7700,94,100,14581,229381,273920
7710,94,100,16690,229342,273854
7720,94,100,19603,229357,273877
7730,94,100,23283,229381,274047
7740,94,100,27615,229476,274154
7750,94,100,32444,229506,274305
7760,94,100,37614,229508,274347
7770,94,100,42799,229554,274422
7780,94,100,47831,229539,274405
7790,94,100,52502,229510,274392
7800,94,100,56605,229489,274357
7810,94,100,60096,229513,274461
7820,94,100,62258,229516,274474
7830,94,100,62258,229615,274705
7840,94,100,62258,229680,274934
7850,94,100,62187,229804,275265
7860,94,100,61939,229870,275514
7870,94,100,61232,229998,275791
7880,94,100,60030,229993,275871
7890,94,100,58405,230024,275911
7900,94,100,56463,229971,275830
7910,94,100,54310,229954,275782
7920,94,100,52051,229937,275756
7930,94,100,49756,229936,275705
7940,94,100,47495,229926,275695
7950,94,100,45339,229978,275805
7960,94,100,43464,230005,275920
7970,94,100,41801,230053,276107
7980,94,100,40383,230137,276256
7990,94,100,39249,230196,276488
8000,94,100,38327,230249,276655
8010,94,100,37581,230365,276863
8020,94,100,36978,230363,277012
8030,94,100,36408,230454,277173
8040,94,100,35873,230515,277369
8050,94,100,35336,230593,277551
8060,94,100,34724,230592,277623
8070,94,100,34002,230683,277751
8080,94,100,33131,230695,277832
8090,94,100,32111,230760,277923
8100,94,100,31014,230778,278014
8110,94,100,29803,230768,278053
8120,94,100,28478,230796,278129
8130,94,100,27113,230850,278210
8140,94,100,25744,230835,278259
8150,94,100,24408,230885,278406
8160,94,100,23179,230963,278472
8170,94,100,21949,230993,278597
8180,94,100,20863,231049,278680
8190,94,100,19888,231071,278860
8200,94,100,18948,231139,279022
8210,94,100,18155,231169,279160
8220,94,100,17435,231272,279277
8230,94,100,16752,231292,279316
8240,94,100,16106,231305,279418
8250,94,100,15496,231315,279413
8260,94,100,14887,231213,279161
8270,94,100,14277,231052,278717
8280,94,100,13741,230726,277935
8290,94,100,13280,230384,277011
8300,94,100,13006,229984,275992
8310,94,100,13105,229657,275146
8320,94,100,13577,229414,274479
8330,94,100,14649,229320,274168
8340,94,100,16356,229264,274028
8350,94,100,18853,229267,274073
8360,94,100,22028,229328,274174
8370,94,100,25735,229386,274331
8380,94,100,29979,229413,274421
8390,94,100,34465,229491,274558
8400,94,100,39118,229510,274656
8410,94,100,43631,229533,274657
8420,94,100,47848,229550,274694
8430,94,100,51539,229567,274726
8440,94,100,54660,229572,274741
8450,94,100,57098,229622,274928
8460,94,100,58813,229648,275123
8470,94,100,59804,229777,275397
8480,94,100,60112,229888,275745
8490,94,100,59774,229986,276084
8500,94,100,58906,230046,276226
8510,94,100,57469,230051,276276
8520,94,100,55578,230075,276288
8530,94,100,53384,230036,276160
8540,94,100,50925,229991,276074
8550,94,100,48350,229967,276016
8560,94,100,45773,229986,276051
8570,94,100,43306,230013,276111
8580,94,100,41027,230045,276180
8590,94,100,39009,230102,276350
8600,94,100,37255,230160,276486
8610,94,100,35803,230220,276651
8620,94,100,34692,230245,276854
8630,94,100,33808,230351,277006
8640,94,100,33153,230409,277226
8650,94,100,32651,230465,277379
8660,94,100,32224,230548,277602
8670,94,100,31795,230570,277724
8680,94,100,31326,230630,277856
8690,94,100,30777,230717,277983
8700,94,100,30109,230770,278113
8710,94,100,29243,230757,278238
8720,94,100,28256,230832,278323
8730,94,100,27109,230833,278412
8740,94,100,25802,230896,278562
8750,94,100,24413,230918,278567
8760,94,100,23020,230907,278627
8770,94,100,21546,230997,278724
8780,94,100,20109,230991,278823
8790,94,100,18709,231020,278875
8800,94,100,17427,231103,279001
8810,94,100,16223,231104,279117
8820,94,100,15098,231181,279195
8830,94,100,14131,231186,279277
8840,94,100,13323,231261,279403
8850,94,100,12554,231254,279559
8860,94,100,11905,231356,279680
8870,94,100,11336,231394,279836
8880,94,100,10767,231431,279935
8890,94,100,10278,231465,279936
8900,94,100,9789,231495,279942
8910,94,100,9301,231394,279699
8920,94,100,8813,231136,279144
8930,94,100,8325,230863,278346
8940,94,100,7997,230471,277333
8950,94,100,7870,230097,276302
8960,94,100,8062,229799,275465
8970,94,100,8773,229527,274820
8980,94,100,10123,229399,274374
8990,94,100,12191,229326,274273
9000,94,100,15060,229339,274271
9010,94,100,18692,229391,274385
9020,94,100,23011,229417,274507
9030,94,100,27821,229485,274635
9040,94,100,32928,229511,274785
9050,94,100,38135,229540,274841
9060,94,100,43234,229577,274882
9070,94,100,47978,229559,274913
9080,94,100,52199,229574,274919
9090,94,100,55733,229606,275009
9100,94,100,58494,229667,275117
9110,94,100,60484,229729,275383
9120,94,100,61701,229846,275661
9130,94,100,62106,229929,275993
9140,94,100,61853,230076,276314
9150,94,100,60923,230101,276459
9160,94,100,59388,230176,276588
9170,94,100,57329,230124,276509
9180,94,100,54947,230139,276478
9190,94,100,52324,230105,276407
9200,94,100,49538,230088,276367
9210,94,100,46668,230085,276346
9220,94,100,43958,230108,276396
9230,94,100,41406,230138,276474
9240,94,100,39134,230175,276637
9250,94,100,37223,230260,276817
9260,94,100,35634,230339,276956
9270,94,100,34367,230374,277100
9280,94,100,33425,230455,277349
9290,94,100,32685,230489,277535
9300,94,100,32107,230580,277709
9310,94,100,31609,230656,277841
9320,94,100,31193,230721,278058
9330,94,100,30692,230747,278137
9340,94,100,30106,230811,278291
9350,94,100,29352,230835,278400
9360,94,100,28470,230891,278515
9370,94,100,27460,230927,278641
9380,94,100,26279,230944,278725
9390,94,100,24970,230968,278778
9400,94,100,23574,231013,278865
9410,94,100,22133,231015,278914
9420,94,100,20648,231085,279023
9430,94,100,19160,231093,279041
9440,94,100,17713,231119,279176
9450,94,100,16349,231132,279231
9460,94,100,15152,231191,279361
9470,94,100,14040,231244,279420
9480,94,100,13055,231346,279632
9490,94,100,12196,231336,279741
9500,94,100,11422,231441,279917
9510,94,100,10733,231473,279985
9520,94,100,10087,231489,280142
9530,94,100,9525,231541,280178
9540,94,100,8922,231535,280171
9550,94,100,8362,231506,280059
9560,94,100,7802,231351,279690
9570,94,100,7285,231085,279013
9580,94,100,6811,230809,278206
9590,94,100,6465,230411,277167
9600,94,100,6459,230090,276262
9610,94,100,6835,229789,275522
9620,94,100,7890,229586,275038
9630,94,100,9624,229466,274718
9640,94,100,12165,229486,274709
9650,94,100,15472,229527,274749
9660,94,100,19590,229563,274845
9670,94,100,24270,229613,275021
9680,94,100,29388,229681,275130
9690,94,100,34738,229700,275226
9700,94,100,40107,229728,275317
9710,94,100,45186,229747,275292
9720,94,100,49843,229741,275352
9730,94,100,53899,229746,275340
9740,94,100,57222,229803,275469
9750,94,100,59725,229856,275635
9760,94,100,61363,229965,275953
9770,94,100,62215,230054,276233
9780,94,100,61834,230162,276535
9790,94,100,61200,230227,276834
9800,94,100,59932,230299,276947
9810,94,100,58158,230329,276947
9820,94,100,55878,230308,276910
9830,94,100,53302,230270,276787
9840,94,100,50515,230259,276778
9850,94,100,47599,230260,276710
9860,94,100,44765,230256,276719
9870,94,100,42097,230272,276836
9880,94,100,39636,230339,276954
9890,94,100,37510,230390,277076
9900,94,100,35721,230451,277298
9910,94,100,34268,230528,277398
9920,94,100,33154,230558,277614
9930,94,100,32250,230631,277756
9940,94,100,31602,230694,277989
9950,94,100,31038,230724,278149
9960,94,100,30515,230804,278317
9970,94,100,30034,230867,278500
9980,94,100,29464,230933,278597
9990,94,100,28762,230981,278732
10000,94,100,27971,231028,278818
10010,94,100,27002,231155,278924
10020,94,100,25856,231100,279041
10030,94,100,24531,231140,279127
10040,94,100,23116,231159,279153
10050,94,100,21655,231157,279220
10060,94,100,20103,231231,279341
10070,94,100,18548,231223,279396
10080,94,100,17080,231274,279470
10090,94,100,15700,231296,279578
10100,94,100,14362,231347,279644
10110,94,100,13157,231244,279799
10120,94,100,12084,231438,279889
10130,94,100,11100,231425,279993
10140,94,100,10249,231549,280182
10150,94,100,9487,231621,280281
10160,94,100,8858,231650,280394
10170,94,100,8274,231691,280491
10180,94,100,7735,231698,280500
10190,94,100,7152,231676,280420
10200,94,100,6569,231531,280107
10210,94,100,6032,231160,279498
10220,94,100,5584,230989,278563
10230,94,100,5270,230608,277582
10240,94,100,5266,230234,276590
10250,94,100,5617,229920,275743
10260,94,100,6632,229698,275140
10270,94,100,8399,229589,274837
10280,94,100,11008,229573,274756
10290,94,100,14459,229598,274824
10300,94,100,18755,229610,274937
10310,94,100,23770,229678,275050
10320,94,100,29287,229728,275172
10330,94,100,35136,229760,275249
10340,94,100,40959,229762,275238
10350,94,100,46571,229765,275284
10360,94,100,51695,229789,275294
10370,94,100,56281,229819,275350
10380,94,100,60056,229841,275413
10390,94,100,62258,229861,275495
10400,94,100,62258,229938,275703
10410,94,100,62258,230025,276016
10420,94,100,62258,230159,276322
10430,94,100,61945,230215,276606
10440,94,100,61009,230294,276790
10450,94,100,59527,230329,276890
10460,94,100,57656,230316,276828
10470,94,100,55396,230327,276843
10480,94,100,52941,230288,276711
10490,94,100,50330,230265,276669
10500,94,100,47678,230255,276654
10510,94,100,45181,230274,276741
10520,94,100,42876,230298,276819
10530,94,100,40802,230378,276922
10540,94,100,39040,230398,277058
10550,94,100,37588,230481,277258
10560,94,100,36409,230539,277387
10570,94,100,35463,230622,277587
10580,94,100,34753,230655,277740
10590,94,100,34200,230746,277928
10600,94,100,33724,230774,278052
10610,94,100,33286,230847,278264
10620,94,100,32847,230899,278373
10630,94,100,32286,230909,278475
10640,94,100,31601,231003,278621
10650,94,100,30754,231021,278743
10660,94,100,29782,231078,278844
10670,94,100,28686,231118,278908
10680,94,100,27505,231106,278968
10690,94,100,26160,231157,279066
10700,94,100,24770,231199,279096
10710,94,100,23336,231219,279159
10720,94,100,21940,231241,279258
10730,94,100,20582,231297,279323
10740,94,100,19264,231302,279389
10750,93,100,18107,231354,279509
10760,93,100,17030,231376,279601
10770,93,100,16075,231485,279782
10780,93,100,15243,231519,279860
10790,93,100,14492,231575,280030
10800,93,100,13823,231586,280119
10810,93,100,13194,231634,280211
10820,93,100,12689,231633,280195
10830,93,100,12143,231620,280077
10840,93,100,11638,231413,279671
10850,93,100,11174,231173,278942
10860,93,100,10752,230804,278008
10870,93,100,10494,230434,277027
10880,93,100,10525,230078,276044
10890,93,100,11008,229836,275317
10900,93,100,12067,229634,274780
10910,93,100,13910,229558,274638
10920,93,100,16496,229511,274538
10930,93,100,19868,229579,274651
10940,93,100,23991,229595,274739
10950,93,100,28704,229673,274895
10960,93,100,33806,229694,274961
10970,93,100,39134,229770,275082
10980,93,100,44350,229771,275040
10990,93,100,49324,229769,275120
11000,93,100,53883,229715,275009
11010,93,100,57814,229747,274923
11020,93,100,61032,229752,275100
11030,93,100,62258,229800,275281
11040,93,100,62258,229853,275417
11050,93,100,62258,230016,275768
11060,93,100,62184,230112,276039
11070,93,100,61743,230189,276315
11080,93,100,60788,230239,276472
11090,93,100,59393,230271,276587
11100,93,100,57596,230233,276509
11110,93,100,55579,230256,276253
11120,93,100,53343,230214,276380
11130,93,100,50959,230184,276355
11140,93,100,48611,230194,276349
11150,93,100,46372,230217,276401
11160,93,100,44278,230248,276461
11170,93,100,42440,230290,276607
11180,93,100,40895,230361,276760
11190,93,100,39606,230410,276934
11200,93,100,38537,230442,277075
11210,93,100,37726,230513,276995
11220,93,100,37062,230587,277442
11230,93,100,36509,230678,277659
11240,93,100,36065,230734,277791
11250,93,100,35621,230763,277922
11260,93,100,35099,230817,278017
11270,93,100,34501,230914,278225
11280,93,100,33786,230902,278278
11290,93,100,32918,230960,278378
11300,93,100,31933,230991,278412
11310,93,100,30830,231018,278480
11320,93,100,29571,231033,278562
11330,93,100,28308,231038,278662
11340,93,100,27003,231078,278694
11350,93,100,25656,231155,278794
11360,93,100,24382,231171,278863
11370,93,100,23106,231199,278954
11380,93,100,21941,231269,279081
11390,93,100,20891,231307,279207
11400,93,100,19954,231358,279318
11410,93,100,19092,231372,279445
11420,93,100,18268,231415,279548
11430,93,100,17559,231463,279642
11440,93,100,16888,231470,279708
11450,93,100,16255,231521,279754
11460,93,100,15622,231486,279735
11470,93,100,15066,231411,279562
11480,93,100,14548,231149,278914
11490,93,100,14069,230870,278144
11500,93,100,13706,230467,277107
11510,93,100,13576,230071,276088
11520,93,100,13795,229751,275247
11530,93,100,14520,229506,274640
11540,93,100,15868,229396,274313
11550,93,100,17917,229403,274183
11560,93,100,20710,229422,274256
11570,93,100,24249,229423,274427
11580,93,100,28384,229461,274504
11590,93,100,33041,229532,274634
11600,93,100,37952,229553,274744
11610,93,100,42915,229592,274795
11620,93,100,47690,229587,274779
11630,93,100,52075,229586,274782
11640,93,100,55987,229534,274749
11650,93,100,59226,229569,274843
11660,93,100,61713,229584,274955
11670,93,100,62258,229688,275113
11680,93,100,62258,229700,275336
11690,93,100,62113,229825,275673
11700,93,100,61825,229939,275990
11710,93,100,61031,230024,276223
11720,93,100,59734,230077,276300
11730,93,100,58077,230110,276382
11740,93,100,56061,230088,276326
11750,93,100,53830,230071,276247
11760,93,100,51490,230049,276182
11770,93,100,49114,230020,276188
11780,93,100,46808,230046,276173
11790,93,100,44645,230088,276295
11800,93,100,42696,230138,276394
11810,93,100,40962,230186,276561
11820,93,100,39479,230282,276729
11830,93,100,38247,230292,276865
11840,93,100,37268,230369,277127
11850,93,100,36506,230461,277314
11860,93,100,35852,230462,277435
11870,93,100,35269,230557,277589
11880,93,100,34757,230599,277776
11890,93,100,34207,230649,277914
11900,93,100,33618,230719,278050
11910,93,100,32915,230770,278184
11920,93,100,32024,230808,278268
11930,93,100,31055,230842,278400
11940,93,100,29971,230854,278423
11950,93,100,28771,230884,278463
11960,93,100,27492,230904,278588
11970,93,100,26135,230947,278626
11980,93,100,24775,230978,278731
11990,93,100,23448,231014,278812
12000,93,100,22195,231084,278949
12010,93,100,21014,231097,279052
12020,93,100,19869,231142,279153
12030,93,100,18836,231172,279300
12040,93,100,17877,231238,279412
12050,93,100,17068,231311,279577
12060,93,100,16259,231325,279724
12070,93,100,15525,231380,279794
12080,93,100,14829,231411,279826
12090,93,100,14208,231424,279837
12100,93,100,13587,231363,279651
12110,93,100,12966,231164,279151
12120,93,100,12383,230870,278410
12130,93,100,11914,230507,277481
12140,93,100,11673,230145,276511
12150,93,100,11737,229792,275581
12160,93,100,12258,229574,274957
12170,93,100,13351,229397,274558
12180,93,100,15130,229309,274412
12190,93,100,17635,229326,274368
12200,93,100,20870,229412,274514
12210,93,100,24722,229451,274609
12220,93,100,29122,229504,274787
12230,93,100,33805,229538,274856
12240,93,100,38582,229554,274936
12250,93,100,43294,229592,275018
12260,93,100,47706,229595,275047
12270,93,100,51619,229582,275015
12280,93,100,54953,229614,275164
12290,93,100,57552,229672,275272
12300,93,100,59413,229755,275495
12310,93,100,60538,229832,275787
12320,93,100,61005,229955,276136
12330,93,100,60736,230090,276419
12340,93,100,59850,230160,276660
12350,93,100,58425,230177,276685
12360,93,100,56498,230202,276677
12370,93,100,54224,230167,276607
12380,93,100,51681,230133,276517
12390,93,100,49020,230107,276434
12400,93,100,46318,230132,276473
12410,93,100,43730,230095,276510
12420,93,100,41331,230154,276597
12430,93,100,39161,230188,276701
12440,93,100,37336,230261,276858
12450,93,100,35818,230318,277034
12460,93,100,34609,230360,277253
12470,93,100,33670,230474,277408
12480,93,100,32964,230519,277628
12490,93,100,32412,230560,277804
12500,93,100,31977,230629,277967
12510,93,100,31540,230722,278148
12520,93,100,31023,230760,278284
12530,93,100,30423,230804,278429
12540,93,100,29743,230856,278555
12550,93,100,28900,230910,278673
12560,93,100,27896,230934,278771
12570,93,100,26768,231009,278861
12580,93,100,25437,231037,279017
12590,93,100,24023,231048,279030
12600,93,100,22525,231075,279164
12610,93,100,21024,231083,279137
12620,93,100,19521,231103,279220
12630,93,100,18137,231173,279271
12640,93,100,16752,231222,279448
12650,93,100,15487,231265,279496
12660,93,100,14342,231309,279644
12670,93,100,13359,231336,279722
12680,93,100,12537,231381,279866
12690,93,100,11796,231418,279977
12700,93,100,11137,231482,280163
12710,93,100,10599,231547,280314
12720,93,100,10102,231608,280441
12730,93,100,9605,231628,280460
12740,93,100,9149,231634,280523
12750,94,100,8653,231604,280362
12760,94,100,8117,231447,279983
12770,94,100,7581,231159,279186
12780,94,100,7168,230789,278276
12790,94,100,6877,230399,277207
12800,94,100,6871,230052,276299
12810,94,100,7311,229764,275525
12820,94,100,8361,229570,275038
12830,94,100,10141,229503,274779
12840,94,100,12733,229503,274739
12850,94,100,16059,229496,274759
12860,94,100,20202,229586,274927
12870,94,100,24964,229622,275080
12880,94,100,30189,229698,275221
12890,94,100,35555,229744,275291
12900,94,100,40897,229696,275343
12910,94,100,46004,229714,275343
12920,94,100,50624,229729,275374
12930,94,100,54586,229737,275417
12940,94,100,57847,229817,275538
12950,94,100,60241,229879,275673
12960,94,100,61807,229989,276003
12970,94,100,62258,230077,276330
12980,94,100,62056,230193,276623
12990,94,100,61412,230248,276853
13000,94,100,60164,230302,277013
13010,94,100,58355,230326,277040
13020,94,100,56103,230348,277004
13030,94,100,53530,230358,276884
13040,94,100,50797,230282,276871
13050,94,100,47981,230269,276800
13060,94,100,45203,230276,276832
13070,94,100,42582,230325,276909
13080,94,100,40241,230353,277020
13090,94,100,38178,230434,277155
13100,94,100,36435,230457,277341
13110,94,100,35053,230527,277526
13120,94,100,33953,230604,277696
13130,94,100,33136,230618,277900
13140,94,100,32480,230731,278073
13150,94,100,31985,230776,278291
13160,94,100,31489,230866,278447
13170,94,100,31032,230897,278588
13180,94,100,30450,230957,278713
13190,94,100,29783,231006,278854
13200,94,100,28947,231071,279040
13210,94,100,27943,231075,279041
13220,94,100,26810,231160,279207
13230,94,100,25549,231135,279213
13240,94,100,24160,231199,279327
13250,94,100,22643,231212,279404
13260,94,100,21123,231242,279468
13270,94,100,19600,231245,279524
13280,94,100,18117,231301,279620
13290,94,100,16717,231335,279697
13300,94,100,15400,231384,279812
13310,94,100,14166,231437,279941
13320,94,100,13101,231467,280031
13330,94,100,12204,231537,280203
13340,94,100,11391,231591,280322
13350,94,100,10663,231605,280453
13360,94,100,10020,231679,280590
13370,94,100,9419,231719,280725
13380,94,100,8861,231732,280755
13390,94,100,8303,231756,280746
13400,94,100,7788,231742,280595
13410,94,100,7190,231582,280179
13420,94,100,6592,231268,279430
13430,94,100,6121,230955,278550
13440,94,100,5862,230557,277497
13450,94,100,5900,230203,276577
13460,94,100,6402,229955,275844
13470,94,100,7538,229797,275430
13480,94,100,9434,229693,275190
13490,94,100,12175,229650,275099
13500,94,100,15721,229710,275207
13510,94,100,19990,229707,275332
13520,94,100,24861,229801,275460
13530,94,100,30170,229885,275540
13540,94,100,35625,229912,275685
13550,94,100,41013,229923,275689
13560,94,100,46155,229921,275702
13570,94,100,50790,229918,275720
13580,94,100,54784,229957,275801
13590,94,100,58048,230008,275978
13600,94,100,60494,230113,276137
13610,94,100,62081,230172,276435
13620,94,100,62258,230267,276760
13630,94,100,62216,230377,277041
13640,94,100,61461,230455,277303
13650,94,100,60078,230482,277351
13660,94,100,58151,230529,277387
13670,94,100,55807,230542,277395
13680,94,100,53128,230481,277268
13690,94,100,50238,230451,277197
13700,94,100,47305,230459,277184
13710,94,100,44453,230484,277232
13720,94,100,41765,230478,277273
13730,94,100,39283,230537,277447
13740,94,100,37132,230578,277568
13750,94,100,35357,230662,277724
13760,94,100,33915,230710,277939
13770,94,100,32810,230781,278108
13780,94,100,31956,230825,278296
13790,94,100,31270,230898,278461
13800,94,100,30710,231005,278657
13810,94,100,30234,231039,278845
13820,94,100,29756,231066,278982
13830,94,100,29190,231140,279092
13840,94,100,28537,231141,279232
13850,94,100,27751,231231,279347
13860,94,100,26747,231303,279492
13870,94,100,25567,231343,279539
13880,94,100,24254,231323,279683
13890,94,100,22807,231382,279761
13900,94,100,21270,231376,279783
13910,94,100,19688,231442,279909
13920,94,100,18103,231489,279925
13930,94,100,16604,231499,280024
13940,94,100,15148,231524,280083
13950,94,100,13823,231612,280223
13960,94,100,12585,231653,280291
13970,94,100,11478,231653,280372
13980,94,100,10503,231685,280500
13990,94,100,9660,231718,280644
14000,94,100,8862,231776,280772
14010,94,100,8239,231817,280907
14020,94,100,7661,231914,280993
14030,94,100,7127,231935,281106
14040,94,100,6638,231949,281090
14050,94,100,6106,231903,280955
14060,94,100,5662,231678,280477
14070,94,100,5219,231419,279705
14080,94,100,4865,231071,278751
14090,94,100,4687,230681,277680
14100,94,100,4860,230277,276726
14110,94,100,5515,230010,275962
14120,94,100,6828,229808,275469
14130,94,100,8975,229754,275262
14140,94,100,11910,229724,275215
14150,94,100,15769,229804,275314
14160,94,100,20424,229828,275451
14170,94,100,25704,229913,275616
14180,94,100,31440,229938,275658
14190,94,100,37374,229974,275763
14200,94,100,43237,230029,275814
14210,94,100,48754,230030,275811
14220,94,100,53742,229976,275773
14230,94,100,58061,230019,275831
14240,94,100,61532,230062,275948
14250,94,100,62258,230110,276095
14260,94,100,62258,230148,276295
14270,94,100,62258,230259,276608
14280,94,100,62258,230351,276887
14290,94,100,61681,230481,277206
14300,94,100,60529,230517,277321
14310,94,100,58879,230590,277368
14320,94,100,56884,230535,277325
14330,94,100,54545,230521,277268
14340,94,100,52052,230480,277198
14350,94,100,49482,230447,277154
14360,94,100,46910,230484,277183
14370,94,100,44489,230534,277292
14380,94,100,42296,230562,277337
14390,94,100,40370,230616,277529
14400,94,100,38750,230669,277675
14410,94,100,37359,230715,277812
14420,94,100,36315,230780,277967
14430,94,100,35462,230830,278163
14440,94,100,34841,230919,278374
14450,94,100,34296,230971,278516
14460,94,100,33827,231016,278659
14470,94,100,33357,231086,278847
14480,94,100,32846,231146,278973
14490,94,100,32253,231217,279121
14500,94,100,31500,231216,279202
14510,94,100,30586,231265,279260
14520,94,100,29549,231307,279364
14530,94,100,28390,231378,279419
14540,94,100,27147,231349,279534
14550,94,100,25781,231414,279565
14560,94,100,24412,231430,279656
14570,94,100,23039,231488,279757
14580,94,100,21664,231496,279821
14590,94,100,20367,231580,279935
14600,94,100,19149,231578,279988
14610,94,100,18049,231620,280133
14620,94,100,17070,231676,280249
14630,94,100,16170,231745,280388
14640,94,100,15390,231808,280528
14650,94,100,14691,231822,280627
14660,94,100,14032,231853,280655
14670,94,100,13372,231928,280787
14680,94,100,12834,231908,280763
14690,94,100,12256,231850,280545
14700,94,100,11718,231656,280104
14710,94,100,11180,231352,279353
14720,94,100,10805,230966,278321
14730,94,100,10591,230616,277301
14740,94,100,10783,230234,276385
14750,93,100,11421,230026,275722
14760,93,100,12708,229849,275274
14770,93,100,14725,229778,275094
14780,93,100,17515,229801,275143
14790,93,100,21081,229838,275239
14800,93,100,25305,229898,275359
14810,93,100,30112,229919,275489
14820,93,100,35263,229953,275607
14830,93,100,40554,230015,275644
14840,93,100,45734,230017,275657
14850,93,100,50551,230005,275651
14860,93,100,54835,230021,275654
14870,93,100,58500,230025,275704
14880,93,100,61422,230009,275786
14890,93,100,62258,230133,275971
14900,93,100,62258,230179,276123
14910,93,100,62258,230291,276468
14920,93,100,62184,230395,276785
14930,93,100,61555,230514,277032
14940,93,100,60373,230545,277153
14950,93,100,58748,230568,277166
14960,93,100,56792,230562,277148
14970,93,100,54578,230545,277113
14980,93,100,52180,230479,276982
14990,93,100,49781,230495,276941
15000,93,100,47418,230491,276977
15010,93,100,45164,230530,277063
15020,93,100,43129,230560,277107
15030,93,100,41352,230611,277280
15040,93,100,39832,230681,277482
15050,93,100,38608,230706,277597
15060,93,100,37680,230746,277762
15070,93,100,36937,230827,277944
15080,93,100,36380,230917,278140
15090,93,100,35896,230975,278290
15100,93,100,35486,231036,278468
15110,93,100,35037,231063,278608
15120,93,100,34511,231107,278708
15130,93,100,33944,231159,278858
15140,93,100,33186,231164,278978
15150,93,100,32309,231251,279044
15160,93,100,31277,231315,279158
15170,93,100,30088,231322,279163
15180,93,100,28818,231313,279273
15190,93,100,27468,231344,279312
15200,93,100,26075,231332,279394
15210,93,100,24717,231405,279470
15220,93,100,23433,231412,279535
15230,93,100,22147,231477,279669
15240,93,100,20936,231477,279757
15250,93,100,19877,231511,279848
15260,93,100,18895,231568,279973
15270,93,100,17989,231606,280087
15280,93,100,17237,231629,280267
15290,93,100,16563,231702,280434
15300,93,100,15888,231799,280541
15310,93,100,15290,231815,280598
15320,93,100,14693,231821,280598
15330,93,100,14134,231781,280536
15340,93,100,13575,231658,280211
15350,93,100,13015,231414,279565
15360,93,100,12495,231065,278631
15370,93,100,12092,230651,277549
15380,93,100,12002,230258,276594
15390,93,100,12303,229991,275766
15400,93,100,13112,229784,275221
15410,93,100,14626,229659,274943
15420,93,100,16963,229593,274921
15430,93,100,20008,229646,274919
15440,93,100,23805,229738,275127
15450,93,100,28200,229786,275220
15460,93,100,33043,229807,275347
15470,93,100,38141,229821,275451
15480,93,100,43252,229850,275521
15490,93,100,48096,229884,275496
15500,93,100,52586,229843,275498
15510,93,100,56442,229870,275518
15520,93,100,59620,229894,275585
15530,93,100,62042,229974,275724
15540,93,100,62258,230039,275970
15550,93,100,62258,230136,276230
15560,93,100,62258,230231,276597
15570,93,100,61782,230326,276882
15580,93,100,60720,230366,277050
15590,93,100,59184,230439,277168
15600,93,100,57321,230459,277183
15610,93,100,55092,230465,277076
15620,93,100,52680,230364,277035
15630,93,100,50159,230370,276929
15640,93,100,47636,230365,276928
15650,93,100,45221,230383,276962
15660,93,100,42986,230387,277060
15670,93,100,40968,230471,277197
15680,93,100,39279,230533,277388
15690,93,100,37881,230587,277523
15700,93,100,36739,230622,277765
15710,93,100,35816,230710,277927
15720,93,100,35114,230808,278129
15730,93,100,34559,230867,278349
15740,93,100,34076,230905,278493
15750,93,100,33554,231000,278713
15760,93,100,33030,231060,278845
15770,93,100,32428,231126,278958
15780,93,100,31712,231177,279099
15790,93,100,30766,231192,279206
15800,93,100,29741,231233,279284
15810,93,100,28523,231254,279332
15820,93,100,27188,231261,279417
15830,93,100,25849,231298,279467
15840,93,100,24430,231340,279583
15850,93,100,23009,231350,279591
15860,93,100,21584,231395,279712
15870,93,100,20272,231419,279794
15880,93,100,18996,231481,279926
15890,93,100,17834,231517,280014
15900,93,100,16824,231562,280235
15910,93,100,15889,231596,280309
15920,93,100,15070,231683,280497
15930,93,100,14365,231704,280570
15940,93,100,13737,231769,280738
15950,93,100,13108,231814,280770
15960,93,100,12557,231854,280809
15970,93,100,11967,231788,280582
15980,93,100,11416,231623,280219
15990,93,100,10904,231297,279481
16000,93,100,10469,231001,278635
16010,93,100,10188,230610,277574
16020,93,100,10216,230292,276725
16030,93,100,10630,230015,276029
16040,93,100,11623,229827,275601
16050,93,100,13312,229789,275344
16060,93,100,15735,229778,275424
16070,93,100,18857,229835,275479
16080,93,100,22641,229883,275629
16090,93,100,26939,229933,275706
16100,93,100,31638,229975,275827
16110,93,100,36472,229987,275936
16120,93,100,41242,230025,275982
16130,93,100,45749,230007,276088
16140,93,100,49791,230105,276110
16150,93,100,53249,230078,276124
16160,93,100,56041,230169,276287
16170,93,100,58087,230257,276572
16180,93,100,59386,230357,276870
16190,93,100,59940,230432,277144
16200,93,100,59788,230562,277424
16210,93,100,58931,230616,277621
16220,93,100,57526,230693,277767
16230,93,100,55653,230646,277650
16240,93,100,53348,230671,277652
16250,93,100,50730,230588,277553
16260,93,100,47993,230587,277530
16270,93,100,45253,230549,277522
16280,93,100,42587,230593,277549
16290,93,100,40153,230645,277653
16300,93,100,37949,230681,277784
16310,93,100,36096,230749,277916
16320,93,100,34514,230697,278075
16330,93,100,33284,230853,278212
16340,93,100,32368,230940,278463
16350,93,100,31649,230961,278621
16360,93,100,31047,231001,278803
16370,93,100,30603,231096,278952
16380,93,100,30197,231136,279136
16390,93,100,29750,231192,279247
16400,93,100,29221,231284,279451
16410,93,100,28610,231294,279571
16420,93,100,27835,231269,279732
16430,93,100,26895,231404,279755
16440,93,100,25791,231474,279910
16450,93,100,24563,231461,279952
16460,93,100,23250,231523,279994
16470,93,100,21813,231510,280091
16480,93,100,20332,231541,280197
16490,93,100,18891,231561,280223
16500,93,100,17447,231625,280312
16510,93,100,16125,231664,280453
16520,93,100,14885,231687,280491
16530,93,100,13725,231696,280610
16540,93,100,12730,231843,280813
16550,93,100,11857,231873,280920
16560,93,100,11066,231919,281069
16570,93,100,10358,231987,281237
16580,93,100,9774,231980,281311
16590,93,100,9148,232046,281381
16600,93,100,8564,232072,281396
16610,93,100,7981,232038,281335
16620,93,100,7440,231930,281005
16630,93,100,6940,231648,280358
16640,93,100,6440,231323,279441
16650,93,100,6106,230942,278390
16660,93,100,6019,230598,277456
16670,93,100,6343,230226,276612
16680,93,100,7283,230027,276067
16690,93,100,8962,229964,275786
16700,93,100,11423,229917,275705
16710,93,100,14665,229924,275756
16720,93,100,18692,229970,275807
16730,93,100,23344,230024,275950
16740,93,100,28503,230102,276091
16750,93,100,33887,230148,276245
16760,93,100,39289,230177,276295
16770,93,100,44455,230177,276322
16780,93,100,49170,230184,276357
16790,93,100,53305,230221,276395
16800,93,100,56731,230250,276512
16810,93,100,59363,230313,276694
16820,93,100,61158,230417,276939
16830,93,100,62075,230491,277309
16840,93,100,61887,230614,277568
16850,93,100,61271,230707,277808
16860,93,100,60038,230731,277930
16870,93,100,58231,230765,277975
16880,93,100,56015,230734,277875
16890,93,100,53429,230725,277819
16900,93,100,50638,230721,277724
16910,93,100,47721,230657,277728
16920,93,100,44884,230668,277675
16930,93,100,42208,230717,277800
16940,93,100,39775,230771,277926
16950,93,100,37668,230819,278048
16960,93,100,35929,230879,278216
16970,93,100,34559,230948,278420
16980,93,100,33435,230967,278603
16990,93,100,32641,231069,278793
17000,93,100,32012,231129,278951
17010,93,100,31507,231181,279148
17020,93,100,31084,231229,279269
17030,93,100,30659,231288,279456
17040,93,100,30106,231301,279601
17050,93,100,29466,231378,279709
17060,93,100,28697,231410,279791
17070,93,100,27714,231476,279924
17080,93,100,26600,231501,279975
17090,93,100,25355,231519,280032
17100,93,100,24022,231551,280113
17110,93,100,22516,231585,280225
17120,93,100,21049,231580,280302
17130,93,100,19580,231639,280368
17140,93,100,18109,231684,280457
17150,93,100,16680,231728,280541
17160,93,100,15378,231776,280660
17170,93,100,14162,231822,280828
17180,93,100,13117,231812,280915
17190,93,100,12158,231918,281095
17200,93,100,11329,231949,281139
17210,93,100,10543,231960,281287
17220,93,100,9886,232037,281390
17230,93,100,9187,232013,281274
17240,93,100,8531,231922,280972
17250,93,100,7962,231681,280474
17260,93,100,7437,231378,279674
17270,93,100,7084,231052,278724
17280,93,100,6991,230711,277790
17290,93,100,7330,230409,276973
17300,93,100,8142,230179,276371
17310,93,100,9645,230018,276070
17320,93,100,11924,230003,275777
17330,93,100,14981,229989,275920
17340,93,100,18862,230055,276054
17350,93,100,23398,230145,276206
17360,93,100,28423,230170,276339
17370,93,100,33725,230230,276446
17380,93,100,39132,230213,276491
17390,93,100,44379,230250,276573
17400,93,100,49153,230290,276601
17410,93,100,53361,230291,276647
17420,93,100,56825,230296,276700
17430,93,100,59543,230397,276932
17440,93,100,61383,230475,277166
17450,93,100,62258,230575,277511
17460,93,100,62086,230665,277778
17470,93,100,61573,230739,278095
17480,93,100,60375,230797,278176
17490,93,100,58623,230881,278267
17500,93,100,56402,230811,278176
17510,93,100,53796,230821,278099
17520,93,100,50976,230764,278018
17530,93,100,48070,230769,277998
17540,93,100,45161,230744,277989
17550,93,100,42333,230807,278073
17560,93,100,39801,230845,278186
17570,93,100,37565,230899,278349
17580,93,100,35711,230958,278422
17590,93,100,34199,231006,278679
17600,93,100,33028,231058,278817
17610,93,100,32114,231110,279045
17620,93,100,31458,231212,279217
17630,93,100,30931,231254,279396
17640,93,100,30446,231313,279544
17650,93,100,30003,231396,279760
17660,93,100,29515,231478,279855
17670,93,100,28848,231472,279996
17680,93,100,28092,231525,280055
17690,93,100,27157,231578,280149
17700,93,100,26086,231578,280267
17710,93,100,24791,231647,280316
17720,93,100,23360,231663,280353
17730,93,100,21927,231687,280485
17740,93,100,20402,231728,280491
17750,93,100,18919,231759,280621
17760,93,100,17434,231757,280714
17770,93,100,15993,231833,280807
17780,93,100,14685,231828,280910
17790,93,100,13466,231935,281130
17800,93,100,12381,231978,281191
17810,93,100,11386,232029,281345
17820,93,100,10525,232016,281370
17830,93,100,9709,232096,281458
17840,93,100,8984,232043,281347
17850,93,100,8348,231957,281076
17860,93,100,7803,231674,280414
17870,93,100,7347,231365,279593
17880,93,100,7027,231012,278581
17890,93,100,7021,230680,277622
17900,93,100,7463,230324,276797
17910,93,100,8487,230109,276203
17920,93,100,10272,230001,275854
17930,93,100,12909,229982,275809
17940,93,100,16355,229979,275780
17950,93,100,20659,230039,275986
17960,93,100,25645,230103,276039
17970,93,100,31141,230158,276213
17980,93,100,36884,230185,276297
17990,93,100,42643,230189,276347
18000,93,100,48186,230209,276317
18010,93,100,53279,230198,276323
18020,93,100,57735,230192,276373
18030,93,100,61416,230214,276434
18040,93,100,62258,230259,276528
18050,93,100,62258,230355,276730
18060,93,100,62258,230451,277051
18070,93,100,62106,230559,277414
18080,93,100,61764,230694,277698
18090,93,100,60853,230792,277930
18100,93,100,59373,230790,278001
18110,93,100,57515,230823,277945
18120,93,100,55316,230750,277855
18130,93,100,52852,230718,277760
18140,93,100,50274,230662,277662
18150,93,100,47694,230677,277703
18160,93,100,45226,230679,277728
18170,93,100,42946,230747,277842
18180,93,100,40891,230792,277899
18190,93,100,39176,230864,278130
18200,93,100,37726,230884,278265
18210,93,100,36618,230999,278415
18220,93,100,35776,230997,278598
18230,93,100,35086,231098,278798
18240,93,100,34587,231136,278936
18250,93,100,34241,231205,279109
18260,93,100,33855,231257,279234
18270,93,100,33429,231319,279419
18280,93,100,32923,231351,279479
18290,93,100,32337,231412,279588
18300,93,100,31553,231426,279628
18310,93,100,30648,231473,279744
18320,93,100,29622,231466,279798
18330,93,100,28475,231529,279847
18340,93,100,27245,231549,279952
18350,93,100,25933,231589,280050
18360,93,100,24618,231617,280166
18370,93,100,23379,231680,280206
18380,93,100,22137,231711,280349
18390,93,100,20933,231804,280493
18400,93,100,19806,231817,280578
18410,93,100,18797,231929,280717
18420,93,100,17827,231956,280794
18430,93,100,16976,231937,280833
18440,93,100,16164,231918,280687
18450,93,100,15431,231776,280383
18460,93,100,14778,231536,279735
18470,93,100,14204,231195,278913
18480,93,100,13831,230840,277907
18490,93,100,13777,230455,276919
18500,93,100,14124,230147,276175
18510,93,100,15073,229975,275621
18520,93,100,16664,229887,275357
18530,93,100,18979,229867,275327
18540,93,100,22061,229880,275366
18550,93,100,25915,229919,275448
18560,93,100,30344,229990,275610
18570,93,100,35154,230002,275742
18580,93,100,40181,230029,275773
18590,93,100,45180,230048,275815
18600,93,100,49983,230061,275856
18610,93,100,54340,230063,275825
18620,93,100,58127,230107,275875
18630,93,100,61219,230108,275952
18640,93,100,62258,230153,276032
18650,93,100,62258,230225,276291
18660,93,100,62258,230354,276585
18670,93,100,62186,230414,276839
18680,93,100,61757,230521,277126
18690,93,100,60792,230574,277317
18700,93,100,59327,230624,277378
18710,93,100,57541,230598,277319
18720,93,100,55471,230559,277255
18730,93,100,53223,230546,277117
18740,93,100,50904,230508,277105
18750,94,100,48583,230491,277111
18760,94,100,46369,230538,277176
18770,94,100,44331,230563,277270
18780,94,100,42542,230597,277362
18790,94,100,41039,230689,277514
18800,94,100,39785,230697,277700
18810,94,100,38782,230809,277873
18820,94,100,37993,230866,278039
18830,94,100,37420,230917,278197
18840,94,100,36955,230972,278392
18850,94,100,36524,231032,278506
18860,94,100,36129,231086,278685
18870,94,100,35659,231092,278723
18880,94,100,35114,231121,278807
18890,94,100,34457,231119,278886
18900,94,100,33650,231149,279006
18910,94,100,32767,231165,279034
18920,94,100,31732,231218,279134
18930,94,100,30657,231243,279185
18940,94,100,29503,231281,279319
18950,94,100,28346,231321,279427
18960,94,100,27148,231374,279550
18970,94,100,25984,231434,279722
18980,94,100,24817,231464,279803
18990,94,100,23722,231511,279968
19000,94,100,22662,231562,280022
19010,94,100,21675,231605,280118
19020,94,100,20761,231611,280175
19030,94,100,19846,231592,280108
19040,94,100,19042,231463,279813
19050,94,100,18276,231188,279240
19060,94,100,17583,230901,278365
19070,94,100,17079,230529,277380
19080,94,100,16876,230167,276405
19090,94,100,17050,229852,275627
19100,94,100,17754,229662,275130
19110,94,100,19063,229540,274809
19120,94,100,21132,229572,274831
19130,94,100,23887,229517,274836
19140,94,100,27332,229602,274989
19150,94,100,31358,229649,275091
19160,94,100,35819,229697,275202
19170,94,100,40409,229719,275282
19180,94,100,45047,229734,275355
19190,94,100,49501,229705,275336
19200,94,100,53535,229739,275386
19210,94,100,57070,229738,275393
19220,94,100,59950,229764,275485
19230,94,100,62175,229830,275617
19240,94,100,62258,229921,275888
19250,94,100,62258,230022,276181
19260,94,100,62222,230105,276535
19270,94,100,61726,230215,276750
19280,94,100,60733,230280,276913
19290,94,100,59245,230236,276888
19300,94,100,57404,230267,276890
19310,94,100,55281,230255,276802
19320,94,100,52945,230200,276743
19330,94,100,50574,230179,276655
19340,94,100,48202,230177,276683
19350,94,100,45970,230192,276725
19360,94,100,43913,230263,276867
19370,94,100,42104,230279,276991
19380,94,100,40541,230390,277199
19390,94,100,39297,230418,277379
19400,94,100,38265,230519,277554
19410,94,100,37482,230559,277718
19420,94,100,36841,230615,277958
19430,94,100,36379,230660,278112
19440,94,100,35915,230755,278231
19450,94,100,35413,230755,278354
19460,94,100,34910,230795,278492
19470,94,100,34259,230840,278576
19480,94,100,33496,230920,278692
19490,94,100,32621,230936,278777
19500,94,100,31633,230985,278894
19510,94,100,30531,231010,278969
19520,94,100,29351,231066,279069
19530,94,100,28058,231093,279174
19540,94,100,26761,231118,279244
19550,94,100,25497,231168,279380
19560,94,100,24230,231206,279507
19570,94,100,22997,231259,279661
19580,94,100,21798,231333,279767
19590,94,100,20672,231392,279869
19600,94,100,19656,231431,279941
19610,94,100,18675,231432,279955
19620,94,100,17768,231452,279982
19630,94,100,16971,231341,279717
19640,94,100,16249,231105,279243
19650,94,100,15600,230836,278473
19660,94,100,15138,230508,277548
19670,94,100,14900,230154,276612
19680,94,100,15035,229850,275815
19690,94,100,15620,229611,275277
19700,94,100,16804,229500,274931
19710,94,100,18626,229487,274842
19720,94,100,21163,229498,274853
19730,94,100,24344,229525,274961
19740,94,100,28097,229551,275096
19750,94,100,32239,229647,275211
19760,94,100,36623,229654,275327
19770,94,100,41058,229713,275401
19780,94,100,45314,229719,275495
19790,94,100,49309,229727,275533
19800,94,100,52852,229795,275621
19810,94,100,55748,229831,275744
19820,94,100,57959,229902,275936
19830,94,100,59447,229964,276229
19840,94,100,60249,230109,276518
19850,94,100,60329,230199,276801
19860,94,100,59762,230259,277030
19870,94,100,58628,230290,277086
19880,94,100,57000,230300,277090
19890,94,100,54918,230264,276998
19900,94,100,52532,230246,276939
19910,94,100,49994,230210,276830
19920,94,100,47302,230182,276819
19930,94,100,44760,230172,276857
19940,94,100,42328,230229,276912
19950,94,100,40197,230265,277061
19960,94,100,38329,230332,277214
19970,94,100,36801,230391,277334
19980,94,100,35577,230487,277527
19990,94,100,34657,230484,277723
20000,94,100,33926,230585,277863
20010,94,100,33386,230639,278113
20020,94,100,32961,230703,278188
20030,94,100,32612,230728,278340
20040,94,100,32222,230800,278474
20050,94,100,31792,230862,278588
20060,94,100,31203,230884,278716
20070,94,100,30457,230941,278800
20080,94,100,29589,230994,278916
20090,94,100,28601,231036,279025
20100,94,100,27414,231076,279093
20110,94,100,26183,231101,279180
20120,94,100,24831,231142,279266
20130,94,100,23475,231162,279366
20140,94,100,22117,231175,279485
20150,94,100,20836,231273,279581
20160,94,100,19553,231291,279732
20170,94,100,18307,231359,279835
20180,94,100,17180,231418,279957
20190,94,100,16092,231414,280014
20200,94,100,15122,231434,280006
20210,94,100,14231,231432,280028
20220,94,100,13420,231322,279789
20230,94,100,12649,231164,279289
20240,94,100,12038,230820,278467
20250,94,100,11626,230513,277566
20260,94,100,11534,230097,276612
20270,94,100,11762,229818,275870
20280,94,100,12509,229617,275297
20290,94,100,13897,229479,274945
20300,94,100,15967,229430,274882
20310,94,100,18799,229448,274907
20320,94,100,22359,229512,274995
20330,94,100,26448,229531,275099
20340,94,100,30993,229611,275239
20350,94,100,35797,229656,275326
20360,94,100,40656,229658,275373
20370,94,100,45323,229704,275470
20380,94,100,49592,229694,275497
20390,94,100,53294,229718,275589
20400,94,100,56388,229757,275758
20410,94,100,58789,229875,275980
20420,94,100,60417,229939,276260
20430,94,100,61231,230079,276595
20440,94,100,61355,230158,276859
20450,94,100,60789,230252,277101
20460,94,100,59575,230275,277091
20470,94,100,57794,230285,277140
20480,94,100,55528,230276,277064
20490,94,100,52939,230221,276918
20500,94,100,50146,230180,276806
20510,94,100,47311,230185,276866
20520,94,100,44513,230185,276858
20530,94,100,41956,230226,276956
20540,94,100,39638,230285,277102
20550,94,100,37642,230347,277280
20560,94,100,36009,230387,277409
20570,94,100,34699,230470,277604
20580,94,100,33714,230546,277796
20590,94,100,32973,230545,277950
20600,94,100,32436,230611,278112
20610,94,100,32063,230682,278256
20620,94,100,31646,230756,278390
20630,94,100,31270,230810,278576
20640,94,100,30809,230858,278652
20650,94,100,30179,230887,278758
20660,94,100,29422,230928,278787
20670,94,100,28494,230936,278938
20680,94,100,27438,230984,278987
20690,94,100,26253,231010,279127
20700,94,100,25023,231039,279167
20710,94,100,23706,231084,279301
20720,94,100,22386,231134,279401
20730,94,100,20979,231218,279523
20740,94,100,19612,231226,279640
20750,95,100,18328,231303,279807
20760,95,100,17085,231351,279883
20770,95,100,15926,231362,280025
20780,95,100,14852,231428,279987
20790,95,100,13819,231452,280037
20800,95,100,12914,231359,279873
20810,95,100,12051,231203,279513
20820,95,100,11316,230937,278867
20830,95,100,10751,230637,278000
20840,95,100,10442,230279,277077
20850,95,100,10431,229947,276189
20860,95,100,10932,229662,275490
20870,95,100,12071,229500,275095
20880,95,100,13893,229417,274836
20890,95,100,16484,229403,274877
20900,95,100,19847,229439,274906
20910,95,100,23856,229493,275095
20920,95,100,28519,229547,275154
20930,95,100,33541,229626,275303
20940,95,100,38710,229621,275390
20950,95,100,43762,229687,275447
20960,95,100,48564,229685,275486
20970,95,100,52851,229748,275613
20980,95,100,56447,229722,275626
20990,95,100,59305,229783,275791
21000,95,100,61382,229866,276038
21010,95,100,62258,230004,276341
21020,95,100,61844,230067,276614
21030,95,100,61515,230185,276878
21040,95,100,60608,230223,277028
21050,95,100,59084,230291,277030
21060,95,100,57109,230276,277059
21070,95,100,54722,230266,276995
21080,95,100,52129,230186,276884
21090,95,100,49370,230177,276832
21100,95,100,46610,230187,276880
21110,95,100,43929,230192,276935
21120,95,100,41451,230261,277031
21130,95,100,39259,230330,277184
21140,95,100,37394,230383,277319
21150,95,100,35857,230410,277486
21160,95,100,34649,230488,277652
21170,95,100,33689,230559,277839
21180,95,100,32935,230628,278043
21190,95,100,32388,230670,278174
21200,95,100,31924,230726,278287
21210,95,100,31458,230800,278456
21220,95,100,30905,230791,278507
21230,95,100,30308,230860,278679
21240,95,100,29582,230880,278710
21250,95,100,28725,230934,278884
21260,95,100,27738,230952,278953
21270,95,100,26663,231005,279058
21280,95,100,25414,231041,279162
21290,95,100,24119,231100,279276
21300,95,100,22735,231132,279344
21310,95,100,21392,231188,279473
21320,95,100,20004,231204,279562
21330,95,100,18656,231263,279698
21340,95,100,17351,231340,279804
21350,95,100,16130,231344,279890
21360,95,100,14951,231372,279996
21370,95,100,13902,231394,279934
21380,95,100,12896,231322,279698
21390,95,100,11976,231129,279329
21400,95,100,11142,230871,278607
21410,95,100,10569,230542,277729
21420,95,100,10255,230148,276768
21430,95,100,10330,229871,275949
21440,95,100,10925,229590,275251
21450,95,100,12213,229425,274895
21460,95,100,14238,229404,274708
21470,95,100,17088,229377,274674
21480,95,100,20723,229435,274834
21490,95,100,25016,229492,274956
21500,95,100,29888,229562,275123
21510,95,100,35083,229622,275186
21520,95,100,40383,229633,275246
21530,95,100,45519,229679,275308
21540,95,100,50310,229644,275304
21550,95,100,54533,229659,275332
21560,95,100,58139,229717,275416
21570,95,100,60952,229770,275541
21580,95,100,62258,229833,275754
21590,95,100,62135,229924,276045
21600,95,100,61778,230035,276382
21610,95,100,61419,230109,276591
21620,95,100,60502,230168,276799
21630,95,100,59068,230229,276868
21640,95,100,57156,230188,276817
21650,95,100,54887,230213,276726
21660,95,100,52379,230151,276676
21670,95,100,49750,230141,276628
21680,95,100,47120,230128,276633
21690,95,100,44568,230139,276614
21700,95,100,42212,230196,276760
21710,95,100,40132,230251,276861
21720,95,100,38330,230319,277058
21730,95,100,36845,230430,277232
21740,95,100,35720,230486,277413
21750,97,100,34834,230497,277562
21760,97,100,34147,230576,277747
21770,97,100,33580,230650,277905
21780,97,100,33093,230677,278031
21790,97,100,32604,230699,278107
21800,97,100,32112,230751,278276
21810,97,100,31578,230790,278374
21820,97,100,30878,230836,278442
21830,97,100,30052,230855,278513
21840,97,100,29099,230895,278587
21850,97,100,28019,230906,278700
21860,97,100,26853,230966,278818
21870,97,100,25685,231015,278914
21880,97,100,24430,231054,279021
21890,97,100,23172,231114,279143
21900,97,100,21912,231150,279278
21910,97,100,20650,231237,279390
21920,97,100,19428,231257,279498
21930,97,100,18287,231304,279539
21940,97,100,17229,231328,279620
21950,97,100,16212,231302,279480
21960,97,100,15277,231159,279180
21970,97,100,14426,230862,278552
21980,97,100,13701,230529,277738
21990,97,100,13184,230226,276764
22000,97,100,13003,229893,275876
22010,97,100,13326,229603,275148
22020,97,100,14194,229405,274626
22030,97,100,15819,229333,274377
22040,97,100,18202,229288,274322
22050,97,100,21388,229309,274377
22060,97,100,25255,229353,274493
22070,97,100,29723,229455,274651
22080,97,100,34673,229503,274789
22090,97,100,39725,229507,274842
22100,97,100,44788,229535,274832
22110,97,100,49646,229532,274846
22120,97,100,54039,229537,274903
22130,97,100,57834,229601,274941
22140,97,100,60860,229619,275042
22150,97,100,62258,229679,275178
22160,97,100,62258,229737,275366
22170,97,100,62258,229815,275675
22180,97,100,62258,229911,275989
22190,97,100,61721,230015,276220
22200,97,100,60610,230128,276338
22210,97,100,59040,230087,276384
22220,97,100,57127,230115,276361
22230,97,100,54909,230064,276236
22240,97,100,52538,230054,276260
22250,97,100,50013,229999,276166
22260,97,100,47602,230042,276205
22270,97,100,45304,230054,276262
22280,97,100,43195,230127,276425
22290,97,100,41276,230177,276534
22300,97,100,39700,230252,276722
22310,97,100,38392,230301,276893
22320,97,100,37314,230397,277100
22330,97,100,36504,230438,277255
22340,97,100,35848,230515,277437
22350,97,100,35306,230583,277516
22360,97,100,34763,230643,277691
22370,97,100,34218,230688,277837
22380,97,100,33631,230719,277945
22390,97,100,33003,230756,278010
22400,97,100,32254,230754,278165
22410,97,100,31384,230809,278160
22420,97,100,30392,230854,278314
22430,97,100,29277,230868,278310
22440,97,100,28079,230909,278418
22450,97,100,26838,230964,278509
22460,97,100,25554,230977,278659
22470,97,100,24307,231032,278710
22480,97,100,23057,231104,278847
22490,97,100,21884,231148,279014
22500,97,100,20790,231249,279115
22510,97,100,19734,231226,279160
22520,97,100,18717,231246,279227
22530,97,100,17738,231308,279142
22540,97,100,16880,231115,278851
22550,97,100,16101,230853,278247
22560,97,100,15443,230555,277488
22570,97,100,14985,230139,276399
22580,97,100,14810,229817,275532
22590,97,100,15079,229539,274812
22600,97,100,15913,229344,274301
22610,97,100,17354,229216,274058
22620,97,100,19565,229236,274017
22630,97,100,22549,229159,274129
22640,97,100,26188,229310,274220
22650,97,100,30408,229368,274412
22660,97,100,35049,229402,274523
22670,97,100,39870,229387,274590
22680,97,100,44661,229432,274668
22690,97,100,49173,229431,274662
22700,97,100,53278,229469,274682
22710,97,100,56809,229422,274727
22720,97,100,59682,229480,274805
22730,97,100,61854,229380,274874
22740,97,100,62258,229614,275148
22750,97,100,62258,229685,275431
22760,97,100,62142,229811,275735
22770,97,100,61523,229888,276002
22780,97,100,60363,229941,276151
22790,97,100,58740,229986,276158
22800,97,100,56771,229969,276133
22810,97,100,54571,229915,276076
22820,97,100,52101,229882,275990
22830,97,100,49591,229894,276013
22840,97,100,47079,229901,276023
22850,97,100,44759,229916,276124
22860,97,100,42592,229987,276251
22870,97,100,40692,230042,276400
22880,97,100,39062,230090,276583
22890,97,100,37741,230157,276772
22900,97,100,36612,230234,276955
22910,97,100,35715,230264,277098
22920,97,100,34933,230347,277271
22930,97,100,34305,230408,277442
22940,97,100,33716,230493,277625
22950,97,100,33123,230511,277748
22960,97,100,32450,230590,277918
22970,97,100,31733,230608,277970
22980,97,100,30855,230652,278119
22990,97,100,29854,230661,278152
23000,97,100,28770,230737,278260
23010,97,100,27522,230745,278351
23020,97,100,26231,230778,278439
23030,97,100,24856,230803,278475
23040,97,100,23478,230900,278616
23050,97,100,22097,230904,278688
23060,97,100,20753,230935,278867
23070,97,100,19489,230980,278939
23080,97,100,18304,231030,279143
23090,97,100,17198,231087,279233
23100,97,100,16213,231128,279358
23110,97,100,15227,231150,279411
23120,97,100,14362,231201,279456
23130,97,100,13497,231150,279302
23140,97,100,12754,230966,278864
23150,97,100,12051,230692,278162
23160,97,100,11471,230337,277249
23170,97,100,11134,229954,276277
23180,97,100,11163,229648,275403
23190,97,100,11640,229402,274796
23200,97,100,12686,229275,274456
23210,97,100,14465,229198,274277
23220,97,100,16937,229241,274331
23230,97,100,20147,229237,274427
23240,97,100,24056,229330,274591
23250,97,100,28425,229357,274739
23260,97,100,33177,229426,274816
23270,97,100,37988,229461,274902
23280,97,100,42689,229442,274905
23290,97,100,47068,229487,274996
23300,97,100,50957,229505,275022
23310,97,100,54228,229535,275134
23320,97,100,56838,229568,275277
23330,97,100,58703,229663,275489
23340,97,100,59741,229793,275803
23350,97,100,60116,229887,276129
23360,97,100,59790,230013,276439
23370,97,100,58804,230048,276575
23380,97,100,57242,230087,276661
23390,97,100,55226,230102,276626
23400,97,100,52798,230068,276529
23410,97,100,50162,229990,276448
23420,97,100,47360,230000,276448
23430,97,100,44513,230002,276322
23440,97,100,41869,230053,276518
23450,97,100,39344,230073,276617
23460,97,100,37103,230126,276788
23470,97,100,35190,230156,276921
23480,97,100,33604,230233,277072
23490,97,100,32348,230338,277329
23500,97,100,31339,230357,277460
23510,97,100,30578,230427,277696
23520,97,100,29984,230510,277853
23530,97,100,29472,230608,277916
23540,97,100,28959,230615,278195
23550,97,100,28401,230704,278363
23560,97,100,27715,230728,278489
23570,97,100,26941,230796,278580
23580,97,100,25996,230844,278680
23590,97,100,24919,230854,278818
23600,97,100,23670,230878,278811
23610,97,100,22290,230910,278862
23620,97,100,20821,230947,278937
23630,97,100,19308,230977,278892
23640,97,100,17793,231015,279114
23650,97,100,16362,231061,279288
23660,97,100,14973,231082,279315
23670,97,100,13713,231129,279451
23680,97,100,12539,231148,279603
23690,97,100,11451,231234,279764
23700,97,100,10493,231285,279891
23710,97,100,9664,231333,280022
23720,97,100,8836,231375,280114
23730,97,100,8137,231438,280192
23740,97,100,7483,231420,280247
23750,98,100,6829,231455,280197
23760,98,100,6220,231345,279884
23770,98,100,5568,231069,279329
23780,98,100,5046,230765,278500
23790,98,100,4741,230401,277454
23800,98,100,4609,229990,276522
23810,98,100,4909,229750,275763
23820,98,100,5812,229549,275293
23830,98,100,7404,229458,275048
23840,98,100,9772,229430,274980
23850,98,100,12916,229495,275066
23860,98,100,16838,229524,275221
23870,98,100,21370,229609,275313
23880,98,100,26344,229662,275484
23890,98,100,31593,229698,275576
23900,98,100,36818,229709,275638
23910,98,100,41840,229741,275662
23920,98,100,46435,229727,275718
23930,98,100,50381,229763,275755
23940,98,100,53629,229779,275864
23950,98,100,56132,229889,276115
23960,98,100,57759,229960,276382
23970,98,100,58598,230085,276681
23980,98,100,58648,230199,276959
23990,98,100,57954,230291,277296
24000,98,100,56649,230353,277374
24010,98,100,54731,230362,277442
24020,98,100,52376,230309,277297
24030,98,100,49714,230294,277222
24040,98,100,46786,230261,277147
24050,98,100,43811,230244,277116
24060,98,100,40874,230260,277162
24070,98,100,38151,230345,277330
24080,98,100,35685,230359,277392
24090,98,100,33520,230375,277585
24100,98,100,31746,230478,277739
24110,98,100,30277,230532,277941
24120,98,100,29159,230631,278148
24130,98,100,28306,230694,278302
24140,98,100,27628,230751,278476
24150,98,100,27127,230798,278694
24160,98,100,26625,230835,278800
24170,98,100,26122,230935,278977
24180,98,100,25528,230987,279130
24190,98,100,24841,231044,279276
24200,98,100,23974,231097,279391
24210,98,100,22923,231139,279511
24220,98,100,21690,231153,279531
24230,98,100,20319,231200,279631
24240,98,100,18901,231197,279654
24250,98,100,17346,231223,279742
24260,98,100,15789,231263,279866
24270,98,100,14232,231298,279940
24280,98,100,12720,231335,280043
24290,98,100,11298,231353,280144
24300,98,100,10014,231424,280203
24310,98,100,8822,231455,280364
24320,98,100,7767,231505,280475
24330,98,100,6804,231592,280665
24340,98,100,5979,231595,280759
24350,98,100,5247,231658,280871
24360,98,100,4606,231695,280924
24370,98,100,3967,231734,280973
24380,98,100,3374,231705,280840
24390,98,100,3276,231508,280479
24400,98,100,3276,231247,279829
24410,98,100,3276,230925,278946
24420,98,100,3276,230584,278019
24430,98,100,3448,230263,277189
24440,98,100,3963,229992,276506
24450,98,100,4992,229851,276066
24460,98,100,6750,229779,275891
24470,98,100,9236,229797,275882
24480,98,100,12494,229780,275932
24490,98,100,16483,229857,276084
24500,98,100,21037,229938,276235
24510,98,100,25943,230003,276415
24520,98,100,31036,230028,276464
24530,98,100,36061,230079,276565
24540,98,100,40842,230066,276613
24550,98,100,45111,230110,276685
24560,98,100,48734,230131,276722
24570,98,100,51663,230216,276892
24580,98,100,53809,230222,277048
24590,98,100,55214,230349,277355
24600,98,100,55791,230424,277696
24610,98,100,55626,230566,277972
24620,98,100,54721,230640,278154
24630,98,100,53249,230706,278285
24640,98,100,51253,230689,278255
24650,98,100,48819,230680,278177
24660,98,100,46121,230646,278056
24670,98,100,43288,230629,278072
24680,98,100,40406,230612,278098
24690,98,100,37604,230626,278175
24700,98,100,35014,230681,278224
24710,98,100,32635,230782,278403
24720,98,100,30644,230823,278544
24730,98,100,28913,230899,278716
24740,98,100,27576,230936,278948
24750,98,100,26545,230985,279087
24760,98,100,25779,231061,279217
24770,98,100,25100,231115,279440
24780,98,100,24598,231167,279567
24790,98,100,24140,231202,279740
24800,98,100,23635,231300,279922
24810,98,100,23040,231367,280051
24820,98,100,22310,231390,280143
24830,98,100,21443,231413,280182
24840,98,100,20395,231430,280305
24850,98,100,19211,231481,280371
24860,98,100,17935,231504,280442
24870,98,100,16522,231562,280553
24880,98,100,15064,231568,280600
24890,98,100,13605,231620,280643
24900,98,100,12236,231649,280774
24910,98,100,10868,231676,280858
24920,98,100,9636,231728,280967
24930,98,100,8495,231803,281106
24940,98,100,7491,231792,281215
24950,98,100,6580,231909,281360
24960,98,100,5805,231911,281506
24970,98,100,5076,231947,281616
24980,98,100,4394,231992,281684
24990,98,100,3804,232040,281698
25000,98,100,3321,232033,281643
25010,98,100,3365,231926,281428
25020,98,100,3450,231729,280941
25030,98,100,3532,231410,280078
25040,98,100,3613,231060,279165
25050,98,100,3695,230663,278211
25060,98,100,3987,230379,277420
25070,98,100,4823,230155,276816
25080,98,100,6327,230031,276539
25090,98,100,8582,230023,276456
25100,98,100,11590,230056,276538
25110,98,100,15309,230100,276644
25120,98,100,19660,230183,276844
25130,98,100,24480,230229,276966
25140,98,100,29565,230330,277130
25150,98,100,34624,230297,277156
25160,98,100,39574,230330,277180
25170,98,100,44113,230333,277168
25180,98,100,48067,230357,277256
25190,98,100,51388,230400,277271
25200,98,100,53903,230431,277419
25210,98,100,55655,230550,277683
25220,98,100,56599,230610,277954
25230,98,100,56821,230748,278275
25240,98,100,56363,230859,278612
25250,98,100,55311,230902,278800
25260,98,100,53707,230940,278836
25270,98,100,51634,230948,278808
25280,98,100,49178,230923,278815
25290,98,100,46550,230901,278737
25300,98,100,43747,230880,278660
25310,98,100,40982,230838,278629
25320,98,100,38295,230903,278725
25330,98,100,35815,230945,278804
25340,98,100,33627,230994,278954
25350,98,100,31733,231077,279109
25360,98,100,30177,231137,279269
25370,98,100,28961,231208,279469
25380,98,100,28045,231265,279688
25390,98,100,27300,231323,279827
25400,98,100,26727,231380,280006
25410,98,100,26282,231412,280158
25420,98,100,25793,231505,280299
25430,98,100,25303,231526,280430
25440,98,100,24724,231583,280570
25450,98,100,24013,231644,280688
25460,98,100,23168,231676,280771
25470,98,100,22147,231708,280876
25480,98,100,21036,231736,280896
25490,98,100,19747,231718,280922
25500,98,100,18369,231769,281043
25510,98,100,17034,231780,281085
25520,98,100,15653,231810,281178
25530,98,100,14316,231872,281215
25540,98,100,13068,231887,281320
25550,98,100,11907,231952,281400
25560,98,100,10836,231995,281575
25570,98,100,9898,232007,281664
25580,98,100,9093,232108,281821
25590,98,100,8377,232117,281936
25600,98,100,7750,232207,282072
25610,98,100,7169,232224,282104
25620,98,100,6588,232262,282188
25630,98,100,6052,232217,282035
25640,98,100,5561,232103,281751
25650,98,100,5026,231817,281075
25660,98,100,4626,231505,280246
25670,98,100,4403,231141,279254
25680,98,100,4445,230740,278351
25690,98,100,4931,230488,277593
25700,98,100,6035,230303,277106
25710,98,100,7847,230262,276892
25720,98,100,10410,230250,276874
25730,98,100,13813,230281,276943
25740,98,100,17973,230349,277129
25750,99,100,22714,230387,277255
25760,99,100,27956,230463,277368
25770,99,100,33392,230442,277417
25780,99,100,38758,230518,277468
25790,99,100,43914,230508,277484
25800,99,100,48542,230512,277523
25810,99,100,52545,230478,277504
25820,99,100,55831,230540,277669
25830,99,100,58262,230596,277722
25840,99,100,59928,230672,278021
25850,99,100,60785,230750,278216
25860,99,100,60833,230894,278597
25870,99,100,60253,230961,278833
25880,99,100,59046,231049,279044
25890,99,100,57257,231088,279046
25900,99,100,55066,231132,279094
25910,99,100,52516,231071,279001
25920,99,100,49740,231041,278934
25930,99,100,46873,231004,278901
25940,99,100,44002,231043,278934
25950,99,100,41307,231050,278956
25960,99,100,38786,231104,279030
25970,99,100,36575,231139,279157
25980,99,100,34629,231207,279286
25990,99,100,33086,231242,279501
26000,99,100,31810,231306,279678
26010,99,100,30849,231395,279824
26020,99,100,30113,231440,280070
26030,99,100,29558,231512,280189
26040,99,100,29048,231563,280354
26050,99,100,28581,231639,280489
26060,99,100,28067,231699,280635
26070,99,100,27414,231737,280748
26080,99,100,26619,231765,280870
26090,99,100,25684,231794,280889
26100,99,100,24608,231801,281002
26110,99,100,23390,231878,281044
26120,99,100,22076,231886,281144
26130,99,100,20621,231912,281218
26140,99,100,19163,231923,281260
26150,99,100,17657,231987,281333
26160,99,100,16197,231997,281448
26170,99,100,14876,232028,281508
26180,99,100,13601,232070,281644
26190,99,100,12419,232116,281706
26200,99,100,11378,232200,281901
26210,99,100,10431,232188,281972
26220,99,100,9578,232256,282096
26230,99,100,8866,232292,282121
26240,99,100,8202,232340,282183
26250,99,100,7538,232283,282061
26260,99,100,6921,232139,281708
26270,99,100,6400,231838,281088
26280,99,100,5972,231518,280184
26290,99,100,5733,231142,279243
26300,99,100,5822,230809,278301
26310,99,100,6427,230536,277582
26320,99,100,7593,230401,277202
26330,99,100,9604,230327,276971
26340,99,100,12411,230338,276994
26350,99,100,16064,230345,277079
26360,99,100,20427,230437,277233
26370,99,100,25409,230431,277390
26380,99,100,30830,230494,277532
26390,99,100,36365,230530,277584
26400,99,100,41916,230556,277615
26410,99,100,47147,230555,277659
26420,99,100,51812,230555,277689
26430,99,100,55765,230552,277691
26440,99,100,58908,230579,277734
26450,99,100,61240,230656,277924
26460,99,100,62258,230726,278156
26470,99,100,61986,230821,278458
26480,99,100,61673,230892,278705
26490,99,100,60864,231027,278976
26500,99,100,59517,231072,279126
26510,99,100,57677,231076,279215
26520,99,100,55389,231105,279178
26530,99,100,52832,231075,279130
26540,99,100,50094,231054,279073
26550,99,100,47265,231026,279017
26560,99,100,44433,231054,279023
26570,99,100,41732,231040,279121
26580,99,100,39251,231089,279222
26590,99,100,37082,231167,279366
26600,99,100,35270,231228,279569
26610,99,100,33724,231218,279668
26620,99,100,32447,231283,279886
26630,99,100,31486,231364,280054
26640,99,100,30750,231441,280270
26650,99,100,30149,231474,280403
26660,99,100,29546,231511,280567
26670,99,100,28987,231612,280711
26680,99,100,28380,231610,280840
26690,99,100,27679,231694,281031
26700,99,100,26791,231713,281095
26710,99,100,25761,231789,281201
26720,99,100,24543,231793,281233
26730,99,100,23182,231836,281330
26740,99,100,21725,231832,281378
26750,99,100,20220,231875,281471
26760,99,100,18619,231897,281531
26770,99,100,17063,231924,281621
26780,99,100,15599,231990,281752
26790,99,100,14182,232025,281851
26800,99,100,12857,232059,281943
26810,99,100,11580,232073,282084
26820,99,100,10444,232135,282180
26830,99,100,9402,232199,282369
26840,99,100,8501,232261,282395
26850,99,100,7695,232275,282528
26860,99,100,6984,232288,282528
26870,99,100,6320,232228,282446
26880,99,100,5705,232088,282001
26890,99,100,5137,231814,281384
26900,99,100,4664,231459,280394
26910,99,100,4426,231087,279491
26920,99,100,4518,230737,278581
26930,99,100,5126,230509,277955
26940,99,100,6343,230378,277550
26950,99,100,8357,230333,277454
26960,99,100,11215,230302,277389
26970,99,100,14873,230380,277533
26980,99,100,19333,230430,277660
26990,99,100,24365,230517,277808
27000,99,100,29741,230514,277947
27010,99,100,35325,230572,278012
27020,99,100,40785,230595,278070
27030,99,100,45924,230602,278153
27040,99,100,50499,230640,278192
27050,99,100,54363,230655,278297
27060,99,100,57464,230731,278388
27070,99,100,59659,230814,278656
27080,99,100,60947,230913,278882
27090,99,100,61424,231010,279286
27100,99,100,61046,231068,279596
27110,99,100,60002,231189,279811
27120,99,100,58246,231268,279917
27130,99,100,55969,231231,279912
27140,99,100,53170,231247,279800
27150,99,100,50085,231173,279686
27160,99,100,46807,231145,279652
27170,99,100,43525,231172,279670
27180,99,100,40380,231144,279684
27190,99,100,37371,231187,279778
27200,99,100,34737,231255,279876
27210,99,100,32526,231313,280061
27220,99,100,30693,231357,280240
27230,99,100,29240,231415,280421
27240,99,100,28121,231464,280537
27250,99,100,27338,231539,280810
27260,99,100,26747,231621,280963
27270,99,100,26251,231697,281143
27280,99,100,25803,231740,281225
27290,99,100,25354,231766,281474
27300,99,100,24806,231855,281591
27310,99,100,24110,231857,281742
27320,99,100,23167,231947,281805
27330,99,100,22125,231995,281912
27340,99,100,20787,232020,282011
27350,99,100,19397,232052,282099
27360,99,100,17810,232054,282121
27370,99,100,16171,232060,282262
27380,99,100,14433,232129,282201
27390,99,100,12744,232140,282354
27400,99,100,11154,232178,282397
27410,99,100,9614,232223,282517
27420,99,100,8273,232241,282639
27430,99,100,6982,232269,282700
27440,99,100,5890,232281,282779
27450,99,100,4948,232382,282993
27460,99,100,4156,232417,283108
27470,99,100,3463,232462,283314
27480,99,100,3276,232529,283364
27490,99,100,3276,232564,283505
27500,99,100,3276,232586,283503
27510,99,100,3322,232580,283535
27520,99,100,3276,232510,283287
27530,99,100,3276,232327,282829
27540,99,100,3276,232030,281978
27550,99,100,3276,231643,281044
27560,99,100,3319,231259,279934
27570,99,100,3534,230957,279137
27580,99,100,4265,230708,278469
27590,99,100,5639,230594,278178
27600,99,100,7786,230538,278043
27610,99,100,10791,230545,278078
27620,99,100,14613,230631,278224
27630,99,100,19127,230688,278414
27640,99,100,24166,230733,278506
27650,99,100,29520,230808,278644
27660,99,100,34936,230802,278700
27670,99,100,40239,230864,278778
27680,99,100,45120,230838,278822
27690,99,100,49441,230868,278838
27700,99,100,53069,230896,278881
27710,99,100,55868,230972,279086
27720,99,100,57881,231016,279302
27730,99,100,59020,231146,279579
27740,99,100,59331,231239,279907
27750,99,100,58943,231368,280301
27760,99,100,57860,231427,280460
27770,99,100,56166,231483,280592
27780,99,100,53994,231460,280555
27790,99,100,51430,231465,280464
27800,99,100,48603,231446,280358
27810,99,100,45598,231372,280328
27820,99,100,42545,231387,280254
27830,99,100,39574,231410,280380
27840,99,100,36858,231460,280525
27850,99,100,34442,231526,280590
27860,99,100,32458,231594,280754
27870,99,100,30776,231609,280915
27880,99,100,29443,231665,281103
27890,99,100,28417,231731,281295
27900,99,100,27654,231792,281500
27910,99,100,27111,231867,281660
27920,99,100,26656,231918,281842
27930,99,100,26200,231992,281958
27940,99,100,25742,232045,282176
27950,99,100,25194,232062,282255
27960,99,100,24465,232118,282383
27970,99,100,23644,232205,282497
27980,99,100,22597,232215,282598
27990,99,100,21368,232264,282729
28000,99,100,20002,232248,282728
28010,99,100,18543,232296,282801
28020,99,100,17038,232328,282853
28030,99,100,15532,232326,282932
28040,99,100,14025,232340,282987
28050,99,100,12518,232419,283059
28060,99,100,11147,232448,283167
28070,99,100,9867,232470,283303
28080,99,100,8724,232552,283382
28090,99,100,7718,232566,283497
28100,99,100,6849,232575,283615
28110,99,100,6162,232656,283721
28120,99,100,5522,232676,283842
28130,99,100,4974,232740,283976
28140,99,100,4517,232764,284073
28150,99,100,4060,232805,284076
28160,99,100,3605,232796,284025
28170,99,100,3276,232693,283800
28180,99,100,3276,232469,283180
28190,99,100,3276,232152,282343
28200,99,100,3276,231789,281422
28210,99,100,3276,231450,280455
28220,99,100,3624,231119,279670
28230,99,100,4535,230938,279111
28240,99,100,6140,230820,278821
28250,99,100,8438,230808,278755
28260,99,100,11604,230784,278763
28270,99,100,15554,230870,278845
28280,99,100,20160,230946,279056
28290,99,100,25253,231027,279264
28300,99,100,30623,231043,279329
28310,99,100,36011,231087,279469
28320,99,100,41197,231110,279478
28330,99,100,45955,231140,279505
28340,99,100,50059,231128,279558
28350,99,100,53460,231186,279696
28360,99,100,56024,231204,279855
28370,99,100,57750,231320,280077
28380,99,100,58638,231428,280455
28390,99,100,58776,231511,280726
28400,99,100,58121,231622,281005
28410,99,100,56763,231659,281168
28420,99,100,54920,231709,281164
28430,99,100,52549,231702,281109
28440,99,100,49825,231689,281066
28450,99,100,46878,231638,281022
28460,99,100,43839,231625,280994
28470,99,100,40839,231633,280960
28480,99,100,38053,231663,281075
28490,99,100,35481,231702,281169
28500,99,100,33257,231748,281361
28510,99,100,31382,231824,281498
28520,99,100,29814,231910,281681
28530,99,100,28643,231918,281814
28540,99,100,27783,232021,282081
28550,99,100,27145,232063,282212
28560,99,100,26641,232125,282387
28570,99,100,26181,232218,282558
28580,99,100,25764,232234,282692
28590,99,100,25301,232282,282834
28600,99,100,24656,232345,282967
28610,99,100,23873,232395,283089
28620,99,100,22907,232428,283205
28630,99,100,21848,232493,283277
28640,99,100,20560,232508,283338
28650,99,100,19225,232494,283399
28660,99,100,17751,232532,283483
28670,99,100,16184,232589,283574
28680,99,100,14663,232570,283550
28690,99,100,13141,232615,283661
28700,99,100,11710,232662,283777
28710,99,100,10372,232683,283876
28720,99,100,9125,232742,283988
28730,99,100,8109,232784,284066
28740,99,100,7186,232835,284200
28750,99,100,6401,232849,284335
28760,99,100,5708,232913,284465
28770,99,100,5108,232937,284562
28780,99,100,4601,232987,284665
28790,99,100,4095,233003,284683
28800,99,100,3636,232981,284611
28810,99,100,3276,232850,284278
28820,99,100,3276,232620,283692
28830,99,100,3276,232301,282816
28840,99,100,3276,231781,281868
28850,99,100,3496,231596,280922
28860,99,100,3978,231276,280120
28870,99,100,4987,231100,279566
28880,99,100,6696,231019,279349
28890,99,100,9194,230942,279159
28900,99,100,12569,231003,279298
28910,99,100,16692,231046,279396
28920,99,100,21480,231148,279590
28930,99,100,26718,231182,279698
28940,99,100,32192,231088,279794
28950,99,100,37730,231251,279866
28960,99,100,43018,231256,279928
28970,99,100,47871,231282,279931
28980,99,100,52106,231291,279985
28990,99,100,55540,231312,280032
29000,99,100,58173,231383,280222
29010,99,100,60002,231424,280395
29020,99,100,60939,231549,280703
29030,99,100,61120,231655,281081
29040,99,100,60544,231766,281375
29050,99,100,59347,231854,281577
29060,99,100,57484,231881,281729
29070,99,100,55178,231897,281642
29080,99,100,52517,231877,281570
29090,99,100,49588,231825,281469
29100,99,100,46568,231838,281472
29110,99,100,43544,231802,281463
29120,99,100,40648,231831,281461
29130,99,100,37925,231912,281552
29140,99,100,35553,231943,281733
29150,99,100,33532,231971,281834
29160,99,100,31910,232046,282047
29170,99,100,30688,232099,282195
29180,99,100,29734,232158,282413
29190,99,100,29003,232219,282545
29200,99,100,28497,232298,282723
29210,99,100,28081,232328,282916
29220,99,100,27663,232387,282980
29230,99,100,27198,232442,283142
29240,99,100,26641,232473,283305
29250,99,100,25945,232527,283391
29260,99,100,25109,232586,283488
29270,99,100,24088,232567,283524
29280,99,100,22927,232600,283631
29290,99,100,21626,232661,283667
29300,99,100,20231,232708,283751
29310,99,100,18741,232705,283802
29320,99,100,17296,232719,283858
29330,99,100,15804,232759,283958
29340,99,100,14449,232786,284019
29350,99,100,13187,232797,284124
29360,99,100,11972,232846,284203
29370,99,100,10895,232878,284335
29380,99,100,10004,232971,284512
29390,99,100,9206,233011,284586
29400,99,100,8549,233047,284693
29410,99,100,7938,233113,284807
29420,99,100,7420,233182,284834
29430,99,100,6903,233120,284742
29440,99,100,6387,233004,284476
29450,99,100,5918,232711,283888
29460,99,100,5542,232422,283010
29470,99,100,5307,232025,282043
29480,99,100,5350,231668,281062
29490,99,100,5857,231366,280252
29500,99,100,6874,231211,279696
29510,99,100,8633,231079,279372
29520,99,100,11227,231043,279361
29530,99,100,14750,231095,279417
29540,99,100,19020,231161,279563
29550,99,100,24042,231215,279774
29560,99,100,29589,231280,279881
29570,99,100,35389,231335,279970
29580,99,100,41162,231352,280015
29590,99,100,46711,231377,280056
29600,99,100,51797,231411,280076
29610,99,100,56179,231371,280081
29620,99,100,59806,231427,280185
29630,99,100,62258,231492,280278
29640,99,100,62258,231518,280482
29650,99,100,62258,231621,280754
29660,99,100,62258,231727,281081
29670,99,100,61707,231833,281373
29680,99,100,60520,231925,281605
29690,99,100,58825,231961,281649
29700,99,100,56666,231959,281644
29710,99,100,54210,231929,281623
29720,99,100,51543,231900,281454
29730,99,100,48747,231891,281437
29740,99,100,45948,231880,281489
29750,98,100,43274,231925,281454
29760,98,100,40851,231916,281550
29770,98,100,38679,231990,281680
29780,98,100,36844,232039,281815
29790,98,100,35346,232109,282005
29800,98,100,34145,232141,282141
29810,98,100,33242,232222,282335
29820,98,100,32551,232275,282494
29830,98,100,32031,232293,282657
29840,98,100,31595,232372,282637
29850,98,100,31158,232432,282931
29860,98,100,30676,232503,283051
29870,98,100,30148,232531,283214
29880,98,100,29488,232581,283280
29890,98,100,28650,232602,283365
29900,98,100,27634,232629,283432
29910,98,100,26528,232696,283533
29920,98,100,25243,232690,283591
29930,98,100,23910,232708,283607
29940,98,100,22487,232714,283510
29950,98,100,21061,232738,283714
29960,98,100,19676,232771,283820
29970,98,100,18379,232791,283841
29980,98,100,17213,232810,283974
29990,98,100,16135,232873,284083
30000,98,100,15145,232881,284183
30010,98,100,14244,232979,284348
30020,98,100,13520,233002,284471
30030,98,100,12840,233066,284586
30040,98,100,12205,233075,284597
30050,98,100,11659,233081,284607
30060,98,100,11158,233006,284435
30070,98,100,10612,232776,283923
30080,98,100,10156,232482,283121
30090,98,100,9789,232129,282156
30100,98,100,9691,231711,281124
30110,98,100,9859,231370,280214
30120,98,100,10563,231124,279662
30130,98,100,11982,231066,279337
30140,98,100,14204,230985,279207
30150,98,100,17232,231024,279290
30160,98,100,21114,231096,279403
30170,98,100,25675,231107,279589
30180,98,100,30744,231192,279690
30190,98,100,36145,231207,279835
30200,98,100,41609,231252,279905
30210,98,100,46948,231266,279937
30220,98,100,51886,231241,279894
30230,98,100,56191,231257,279952
30240,98,100,59770,231270,279967
30250,98,100,62258,231302,280080
30260,98,100,62258,231390,280187
30270,98,100,62258,231460,280558
30280,98,100,62258,231535,280787
30290,98,100,61895,231655,281119
30300,98,100,60927,231745,281394
30310,98,100,59436,231793,281572
30320,98,100,57544,231790,281573
30330,98,100,55290,231788,281501
30340,98,100,52795,231740,281413
30350,98,100,50179,231718,281295
30360,98,100,47480,231700,281259
30370,98,100,44859,231681,281314
30380,98,100,42477,231719,281405
30390,98,100,40294,231812,281530
30400,98,100,38391,231808,281652
30410,98,100,36808,231903,281854
30420,98,100,35507,231945,282045
30430,98,100,34529,232027,282268
30440,98,100,33793,232101,282398
30450,98,100,33219,232147,282625
30460,98,100,32726,232192,282719
30470,98,100,32272,232283,282940
30480,98,100,31733,232306,283025
30490,98,100,31109,232357,283210
30500,98,100,30400,232362,283263
30510,98,100,29522,232424,283404
30520,98,100,28517,232461,283490
30530,98,100,27383,232484,283562
30540,98,100,26079,232528,283605
30550,98,100,24729,232564,283679
30560,98,100,23293,232542,283713
30570,98,100,21854,232609,283825
30580,98,100,20413,232614,283830
30590,98,100,19053,232641,283977
30600,98,100,17776,232665,284023
30610,98,100,16582,232712,284182
30620,98,100,15557,232752,284284
30630,98,100,14615,232785,284455
30640,98,100,13799,232844,284558
30650,98,100,13110,232918,284713
30660,98,100,12463,232928,284770
30670,98,100,11901,233001,284890
30680,98,100,11381,232950,284826
30690,98,100,10862,232885,284624
30700,98,100,10385,232710,284114
30710,98,100,9909,232417,283445
30720,98,100,9560,232069,282416
30730,98,100,9424,231679,281434
30740,98,100,9626,231319,280554
30750,98,100,10296,231112,279945
30760,98,100,11559,230940,279581
30770,98,100,13587,230942,279476
30780,98,100,16423,230967,279529
30790,98,100,20027,231010,279653
30800,98,100,24320,231077,279806
30810,98,100,29092,231130,279986
30820,98,100,34223,231176,280058
30830,98,100,39457,231210,280140
30840,98,100,44447,231189,280191
30850,98,100,49143,231280,280311
30860,98,100,53240,231243,280247
30870,98,100,56649,231283,280368
30880,98,100,59323,231317,280477
30890,98,100,61177,231416,280726
30900,98,100,62211,231450,280945
30910,98,100,62258,231613,281342
30920,98,100,61831,231687,281619
30930,98,100,60723,231783,281829
30940,98,100,59018,231824,281935
30950,98,100,56888,231836,281919
30960,98,100,54333,231767,281824
30970,98,100,51564,231761,281739
30980,98,100,48624,231744,281702
30990,98,100,45681,231738,281701
31000,98,100,42862,231740,281748
31010,98,100,40295,231832,281872
31020,98,100,38024,231838,281938
31030,98,100,36004,231931,282152
31040,98,100,34367,231971,282297
31050,98,100,33027,232008,282475
31060,98,100,32029,232095,282614
31070,98,100,31288,232164,282855
31080,98,100,30719,232218,283005
31090,98,100,30235,232297,283166
31100,98,100,29750,232338,283336
31110,98,100,29262,232356,283461
31120,98,100,28686,232384,283542
31130,98,100,27976,232505,283737
31140,98,100,27132,232519,283853
31150,98,100,26109,232554,283967
31160,98,100,24907,232607,284046
31170,98,100,23570,232669,284114
31180,98,100,22141,232644,284140
31190,98,100,20621,232663,284205
31200,98,100,19055,232672,284288
31210,98,100,17576,232696,284328
31220,98,100,16140,232717,284399
31230,98,100,14792,232748,284480
31240,98,100,13489,232815,284615
31250,98,100,12363,232834,284679
31260,98,100,11372,232833,284757
31270,98,100,10558,232919,284963
31280,98,100,9790,232982,285085
31290,98,100,9157,233017,285202
31300,98,100,8657,233064,285293
31310,98,100,8158,233101,285398
31320,98,100,7705,233129,285432
31330,98,100,7162,233139,285397
31340,98,100,6709,233009,285151
31350,98,100,6213,232796,284562
31360,98,100,5762,232479,283702
31370,98,100,5445,232125,282717
31380,98,100,5397,231740,281776
31390,98,100,5706,231409,280904
31400,98,100,6551,231172,280307
31410,98,100,8110,231073,279986
31420,98,100,10517,231033,279915
31430,98,100,13773,231037,279922
31440,98,100,17881,231104,280112
31450,98,100,22667,231191,280186
31460,98,100,27956,231255,280378
31470,98,100,33578,231327,280486
31480,98,100,39264,231371,280595
31490,98,100,44694,231376,280641
31500,98,100,49724,231361,280649
31510,98,100,54124,231381,280686
31520,98,100,57799,231413,280797
31530,98,100,60565,231473,280942
31540,98,100,62258,231566,281145
31550,98,100,62258,231658,281516
31560,98,100,62258,231742,281776
31570,98,100,61698,231853,282106
31580,98,100,60451,231908,282252
31590,98,100,58603,231903,282267
31600,98,100,56283,231927,282308
31610,98,100,53662,231936,282184
31620,98,100,50740,231888,282066
31630,98,100,47729,231850,282031
31640,98,100,44802,231827,282035
31650,98,100,42001,231882,282122
31660,98,100,39410,231923,282214
31670,98,100,37116,231942,282378
31680,98,100,35207,232011,282489
31690,98,100,33684,232084,282683
31700,98,100,32461,232149,282873
31710,98,100,31584,232197,283057
31720,98,100,30879,232235,283209
31730,98,100,30392,232296,283352
31740,98,100,29947,232383,283554
31750,97,100,29545,232420,283671
31760,97,100,29053,232458,283832
31770,97,100,28427,232494,283947
31780,97,100,27754,232581,284083
31790,97,100,26902,232587,284163
31800,97,100,25825,232614,284241
31810,97,100,24567,232640,284301
31820,97,100,23217,232662,284317
31830,97,100,21775,232716,284438
31840,97,100,20286,232725,284518
31850,97,100,18795,232752,284571
31860,97,100,17302,232757,284632
31870,97,100,15853,232839,284733
31880,97,100,14538,232860,284866
31890,97,100,13357,232877,284963
31900,97,100,12266,232928,285046
31910,97,100,11310,232967,285187
31920,97,100,10445,233013,285322
31930,97,100,9714,233024,285419
31940,97,100,9029,233082,285538
31950,97,100,8480,233082,285558
31960,97,100,7932,233136,285490
31970,97,100,7384,233022,285271
31980,97,100,6881,232800,284707
31990,97,100,6425,232517,283962
32000,97,100,6149,232193,283112
32010,97,100,6053,231845,282158
32020,97,100,6364,231508,281357
32030,97,100,7260,231325,280745
32040,97,100,8787,231166,280358
32050,97,100,11125,231165,280280
32060,97,100,14275,231196,280351
32070,97,100,18150,231209,280438
32080,97,100,22708,231271,280602
32090,97,100,27730,231330,280752
32100,97,100,33131,231379,280882
32110,97,100,38505,231441,281000
32120,97,100,43758,231462,281064
32130,97,100,48562,231428,281047
32140,97,100,52821,231464,281144
32150,97,100,56350,231528,281215
32160,97,100,59053,231582,281371
32170,97,100,60931,231607,281568
32180,97,100,61938,231747,281944
32190,97,100,62121,231866,282264
32200,97,100,61528,231947,282517
32210,97,100,60251,232023,282634
32220,97,100,58337,232039,282747
32230,97,100,55921,232012,282641
32240,97,100,53187,232022,282598
32250,97,100,50179,231969,282543
32260,97,100,47077,231915,282440
32270,97,100,44017,231950,282432
32280,97,100,41090,231978,282568
32290,97,100,38432,231992,282633
32300,97,100,36089,232043,282778
32310,97,100,34107,232118,282921
32320,97,100,32535,232182,283088
32330,97,100,31282,232215,283245
32340,97,100,30350,232310,283501
32350,97,100,29694,232332,283608
32360,97,100,29175,232398,283826
32370,97,100,28795,232488,283953
32380,97,100,28367,232504,284097
32390,97,100,27891,232525,284211
32400,97,100,27320,232621,284371
32410,97,100,26606,232655,284436
32420,97,100,25654,232691,284522
32430,97,100,24559,232690,284589
32440,97,100,23367,232709,284640
32450,97,100,22031,232748,284706
32460,97,100,20597,232776,284811
32470,97,100,19067,232828,284860
32480,97,100,17583,232818,284928
32490,97,100,16097,232860,284965
32500,97,100,14754,232888,285101
32510,97,100,13410,232954,285177
32520,97,100,12256,232985,285319
32530,97,100,11149,233008,285413
32540,97,100,10187,233058,285605
32550,97,100,9367,233128,285654
32560,97,100,8644,233170,285793
32570,97,100,8016,233170,285859
32580,97,100,7389,233169,285850
32590,97,100,6858,233096,285602
32600,97,100,6328,232938,285183
32610,97,100,5894,232627,284368
32620,97,100,5556,232299,283464
32630,97,100,5409,231939,282416
32640,97,100,5692,231619,281615
32650,97,100,6451,231364,280919
32660,97,100,7925,231191,280543
32670,97,100,10257,231166,280404
32680,97,100,13542,231174,280421
32690,97,100,17594,231233,280538
32700,97,100,22464,231298,280701
32710,97,100,27967,231327,280804
32720,97,100,33825,231356,280937
32730,97,100,39751,231416,280974
32740,97,100,45546,231442,281074
32750,97,100,50915,231407,281050
32760,97,100,55753,231441,281071
32770,97,100,59720,231471,281113
32780,97,100,62258,231474,281254
32790,97,100,62258,231562,281416
32800,97,100,62258,231658,281723
32810,97,100,62258,231762,282020
32820,97,100,61967,231882,282302
32830,97,100,61054,231931,282526
32840,97,100,59602,232023,282651
32850,97,100,57654,232008,282645
32860,97,100,55333,232000,282577
32870,97,100,52722,231950,282501
32880,97,100,50028,231945,282442
32890,97,100,47248,231916,282413
32900,97,100,44591,231951,282475
32910,97,100,42055,231914,282502
32920,97,100,39848,232060,282669
32930,97,100,37929,232056,282735
32940,97,100,36298,232114,282969
32950,97,100,35041,232139,283106
32960,97,100,34075,232213,283248
32970,97,100,33359,232287,283430
32980,97,100,32809,232329,283575
32990,97,100,32385,232342,283695
33000,97,100,32002,232397,283899
33010,97,100,31574,232462,284039
33020,97,100,31102,232524,284100
33030,97,100,30501,232592,284248
33040,97,100,29768,232597,284311
33050,97,100,28862,232628,284433
33060,97,100,27824,232665,284459
33070,97,100,26653,232684,284526
33080,97,100,25394,232741,284593
33090,97,100,24088,232755,284623
33100,97,100,22693,232761,284730
33110,97,100,21295,232795,284812
33120,97,100,20025,232849,284896
33130,97,100,18753,232873,285002
33140,97,100,17567,232880,285042
33150,97,100,16510,232962,285220
33160,97,100,15539,232997,285262
33170,97,100,14655,233025,285408
33180,97,100,13901,233079,285456
33190,97,100,13191,233052,285462
33200,97,100,12568,233042,285345
33210,97,100,11988,232864,285026
33220,97,100,11496,232645,284369
33230,97,100,11135,232296,283434
33240,97,100,10906,231919,282488
33250,97,100,11025,231580,281539
33260,97,100,11626,231320,280829
33270,97,100,12839,231136,280346
33280,97,100,14710,231069,280154
33290,97,100,17413,231062,280156
33300,97,100,20865,231126,280238
33310,97,100,25071,231147,280383
33320,97,100,29859,231218,280490
33330,97,100,35062,231258,280566
33340,97,100,40370,231283,280713
33350,97,100,45647,231320,280747
33360,97,100,50619,231297,280705
33370,97,100,55150,231327,280714
33380,97,100,59013,231345,280740
33390,97,100,62030,231355,280843
33400,97,100,62258,231389,280958
33410,97,100,62258,231477,281178
33420,97,100,62258,231588,281485
33430,97,100,62142,231675,281879
33440,97,100,61525,231751,282009
33450,97,100,60368,231863,282281
33460,97,100,58711,231839,282296
33470,97,100,56708,231862,282250
33480,97,100,54437,231841,282209
33490,97,100,52011,231806,282123
33500,97,100,49469,231758,281982
33510,97,100,46964,231785,282027
33520,97,100,44611,231772,282034
33530,97,100,42449,231795,282174
33540,97,100,40555,231893,282243
33550,97,100,38968,231919,282452
33560,97,100,37650,231982,282588
33570,97,100,36641,232022,282812
33580,97,100,35864,232073,282929
33590,97,100,35319,232133,283137
33600,97,100,34891,232194,283260
33610,97,100,34541,232255,283426
33620,97,100,34149,232299,283537
33630,97,100,33756,232349,283686
33640,97,100,33243,232397,283747
33650,97,100,32568,232431,283844
33660,97,100,31772,232471,283908
33670,97,100,30853,232495,283983
33680,97,100,29771,232538,284014
33690,97,100,28606,232513,284104
33700,97,100,27357,232544,284145
33710,97,100,26104,232559,284245
33720,97,100,24808,232586,284292
33730,97,100,23589,232617,284391
33740,97,100,22408,232657,284385
33750,95,100,21306,232662,284568
33760,95,100,20323,232697,284674
33770,95,100,19379,232805,284859
33780,95,100,18595,232835,285001
33790,95,100,17892,232940,285104
33800,95,100,17229,232940,285112
33810,95,100,16606,232941,285154
33820,95,100,15982,232848,285013
33830,95,100,15398,232701,284657
33840,95,100,14896,232373,283883
33850,95,100,14434,232024,282908
33860,95,100,14176,231655,281931
33870,95,100,14203,231334,280989
33880,95,100,14679,231007,280275
33890,95,100,15767,230883,279888
33900,95,100,17510,230813,279711
33910,95,100,20073,230819,279709
33920,95,100,23377,230853,279848
33930,95,100,27387,230898,279974
33940,95,100,31944,230976,280132
33950,95,100,36847,231023,280233
33960,95,100,41889,231043,280251
33970,95,100,46858,231035,280294
33980,95,100,51500,231055,280290
33990,95,100,55688,231019,280310
34000,95,100,59253,231028,280296
34010,95,100,62068,231038,280442
34020,95,100,62258,231050,280504
34030,95,100,62258,231155,280744
34040,95,100,62185,231262,281035
34050,95,100,61895,231385,281428
34060,95,100,61279,231442,281617
34070,95,100,60120,231535,281796
34080,95,100,58563,231523,281781
34090,95,100,56682,231519,281787
34100,95,100,54584,231444,281710
34110,95,100,52269,231452,281663
34120,95,100,49954,231424,281601
34130,95,100,47601,231439,281629
34140,95,100,45428,231469,281684
34150,95,100,43434,231519,281804
34160,95,100,41656,231528,281892
34170,95,100,40131,231622,282125
34180,95,100,38894,231630,282257
34190,95,100,37949,231677,282381
34200,95,100,37184,231730,282571
34210,95,100,36602,231816,282804
34220,95,100,36092,231867,282905
34230,95,100,35653,231930,283134
34240,95,100,35140,231945,283220
34250,95,100,34624,232018,283386
34260,95,100,33995,232082,283435
34270,95,100,33252,232129,283562
34280,95,100,32356,232114,283656
34290,95,100,31382,232193,283743
34300,95,100,30255,232209,283752
34310,95,100,29086,232216,283849
34320,95,100,27838,232244,283932
34330,95,100,26549,232259,283970
34340,95,100,25294,232280,284046
34350,95,100,24074,232318,284169
34360,95,100,22927,232360,284253
34370,95,100,21815,232430,284464
34380,95,100,20815,232466,284574
34390,95,100,19890,232525,284671
34400,95,100,19078,232557,284791
34410,95,100,18302,232615,284907
34420,95,100,17602,232604,284887
34430,95,100,16940,232622,284895
34440,95,100,16277,232559,284665
34450,95,100,15690,232347,284190
34460,95,100,15179,232051,283445
34470,95,100,14744,231702,282553
34480,95,100,14577,231353,281548
34490,95,100,14716,231057,280810
34500,95,100,15315,230812,280148
34510,95,100,16452,230738,279884
34520,95,100,18280,230682,279783
34530,95,100,20764,230723,279830
34540,95,100,23946,230743,279936
34550,95,100,27713,230793,280117
34560,95,100,31955,230866,280242
34570,95,100,36368,230942,280364
34580,95,100,40873,230915,280393
34590,95,100,45193,230959,280521
34600,95,100,49208,230962,280473
34610,95,100,52720,230978,280578
34620,95,100,55609,230969,280657
34630,95,100,57835,231064,280796
34640,95,100,59320,231127,281041
34650,95,100,60103,231227,281321
34660,95,100,60223,231347,281627
34670,95,100,59760,231434,281874
34680,95,100,58675,231455,282014
34690,95,100,57124,231561,282090
34700,95,100,55107,231480,282015
34710,95,100,52819,231454,281972
34720,95,100,50296,231429,281867
34730,95,100,47694,231423,281817
34740,95,100,45129,231393,281831
34750,95,100,42716,231427,281897
34760,95,100,40494,231451,282010
34770,95,100,38542,231500,282128
34780,95,100,36899,231603,282262
34790,95,100,35566,231630,282425
34800,95,100,34505,231693,282594
34810,95,100,33717,231736,282782
34820,95,100,33124,231781,282920
34830,95,100,32688,231853,283095
34840,95,100,32329,231896,283254
34850,95,100,31930,231967,283432
34860,95,100,31528,232010,283560
34870,95,100,31006,232086,283689
34880,95,100,30361,232087,283798
34890,95,100,29553,232121,283847
34900,95,100,28581,232190,284009
34910,95,100,27446,232206,284037
34920,95,100,26186,232226,284141
34930,95,100,24882,232248,284173
34940,95,100,23495,232282,284238
34950,95,100,22104,232286,284318
34960,95,100,20711,232317,284349
34970,95,100,19397,232369,284521
34980,95,100,18163,232380,284513
34990,95,100,17010,232457,284660
35000,95,100,15977,232445,284711
35010,95,100,15066,232502,284840
35020,95,100,14277,232553,285001
35030,95,100,13570,232622,285146
35040,95,100,12985,232625,285245
35050,95,100,12481,232557,285330
35060,95,100,11978,232710,285396
35070,95,100,11475,232697,285310
35080,95,100,10972,232605,285016
35090,95,100,10511,232358,284421
35100,95,100,10090,232019,283610
35110,95,100,9752,231663,282559
35120,95,100,9701,231284,281589
35130,95,100,10019,230956,280758
35140,95,100,10829,230761,280220
35150,95,100,12338,230517,279882
35160,95,100,14626,230613,279844
35170,95,100,17656,230630,279894
35180,95,100,21472,230703,280075
35190,95,100,25956,230735,280155
35200,95,100,30865,230810,280297
35210,95,100,36040,230815,280382
35220,95,100,41232,230846,280503
35230,95,100,46226,230837,280513
35240,95,100,50811,230866,280543
35250,95,100,54815,230673,280531
35260,95,100,58110,230949,280637
35270,95,100,60611,230994,280790
35280,95,100,62258,231084,281075
35290,95,100,62258,231166,281341
35300,95,100,62258,231283,281696
35310,95,100,61696,231381,281956
35320,95,100,60493,231436,282104
35330,95,100,58811,231437,282107
35340,95,100,56729,231457,282095
35350,95,100,54327,231395,281953
35360,95,100,51645,231359,281913
35370,95,100,48921,231355,281878
35380,95,100,46156,231373,281918
35390,95,100,43547,231378,281958
35400,95,100,41136,231438,282025
35410,95,100,39043,231482,282183
35420,95,100,37310,231521,282346
35430,95,100,35896,231536,282496
35440,95,100,34802,231637,282667
35450,95,100,33950,231696,282860
35460,95,100,33298,231776,283088
35470,95,100,32849,231796,283235
35480,95,100,32439,231890,283409
35490,95,100,32027,231920,283505
35500,95,100,31532,232014,283659
35510,95,100,30952,232035,283765
35520,95,100,30246,232095,283926
35530,95,100,29372,232117,283939
35540,95,100,28329,232160,284042
35550,95,100,27158,232164,284076
35560,95,100,25860,232181,284168
35570,95,100,24516,232229,284214
35580,95,100,23128,232252,284292
35590,95,100,21737,232274,284346
35600,95,100,20344,232286,284445
35610,95,100,19032,232330,284500
35620,95,100,17803,232343,284650
35630,95,100,16740,232392,284766
35640,95,100,15760,232473,284860
35650,95,100,14948,232503,285039
35660,95,100,14220,232526,285097
35670,95,100,13534,232566,285205
35680,95,100,12889,232600,285264
35690,95,100,12329,232629,285266
35700,95,100,11769,232576,285229
35710,95,100,11294,232461,284850
35720,95,100,10818,232209,284193
35730,95,100,10470,231870,283375
35740,95,100,10206,231529,282472
35750,95,100,10238,231194,281571
35760,95,100,10650,230965,280863
35770,95,100,11653,230722,280375
35780,95,100,13333,230656,280185
35790,95,100,15733,230667,280081
35800,95,100,18855,230699,280235
35810,95,100,22702,230720,280318
35820,95,100,27110,230819,280492
35830,95,100,31915,230856,280533
35840,95,100,36908,230900,280735
35850,95,100,41916,230902,280770
35860,95,100,46676,230971,280790
35870,95,100,50971,230951,280839
35880,95,100,54668,231024,280971
35890,95,100,57591,231029,281032
35900,95,100,59740,231115,281264
35910,95,100,61115,231177,281490
35920,95,100,61717,231268,281803
35930,95,100,61546,231387,282061
35940,95,100,60691,231454,282296
35950,95,100,59280,231492,282420
35960,95,100,57356,231506,282368
35970,95,100,55006,231495,282279
35980,95,100,52356,231484,282249
35990,95,100,49577,231380,282142
36000,95,100,46754,231405,282163
36010,95,100,44013,231410,282164
36020,95,100,41439,231464,282303
36030,95,100,39162,231530,282370
36040,95,100,37182,231540,282517
36050,95,100,35542,231615,282523
36060,95,100,34244,231667,282830
36070,95,100,33289,231706,283016
36080,95,100,32549,231790,283210
36090,95,100,31981,231830,283344
36100,95,100,31541,231914,283525
36110,95,100,31188,231937,283709
36120,95,100,30790,232000,283805
36130,95,100,30258,232098,283953
36140,95,100,29636,232114,284096
36150,95,100,28791,232138,284103
36160,95,100,27855,232151,284214
36170,95,100,26739,232180,284272
36180,95,100,25443,232180,284316
36190,95,100,24055,232219,284403
36200,95,100,22574,232256,284483
36210,95,100,21091,232298,284560
36220,95,100,19606,232359,284695
36230,95,100,18163,232352,284718
36240,95,100,16853,232417,284859
36250,95,100,15587,232449,284970
36260,95,100,14454,232503,285111
36270,95,100,13455,232511,285202
36280,95,100,12501,232606,285333
36290,95,100,11726,232644,285383
36300,95,100,10952,232652,285417
36310,95,100,10223,232588,285322
36320,95,100,9628,232516,285072
36330,95,100,9079,232270,284513
36340,95,100,8666,231973,283674
36350,95,100,8342,231657,282819
36360,95,100,8334,231291,281810
36370,95,100,8775,230945,281002
36380,95,100,9756,230733,280414
36390,95,100,11456,230632,280111
36400,95,100,13876,230624,280057
36410,95,100,17199,230665,280092
36420,95,100,21292,230685,280187
36430,95,100,26026,230732,280322
36440,95,100,31271,230814,280478
36450,95,100,36808,230876,280574
36460,95,100,42361,230889,280625
36470,95,100,47652,230859,280624
36480,95,100,52537,230882,280607
36490,95,100,56784,230894,280672
36500,95,100,60343,230943,280743
36510,95,100,62258,230932,280886
36520,95,100,62258,231010,281036
36530,95,100,62258,231102,281330
36540,95,100,62097,231235,281640
36550,95,100,61657,231316,281966
36560,95,100,60656,231418,282150
36570,95,100,59136,231408,282142
36580,95,100,57177,231413,282120
36590,95,100,54938,231387,282045
36600,95,100,52460,231353,281987
36610,95,100,49901,231325,281933
36620,95,100,47341,231310,281923
36630,95,100,44899,231370,281976
36640,95,100,42655,231385,282060
36650,95,100,40688,231406,282170
36660,95,100,38960,231502,282325
36670,95,100,37592,231549,282450
36680,95,100,36504,231645,282632
36690,95,100,35656,231660,282795
36700,95,100,35009,231708,282976
36710,95,100,34523,231766,283132
36720,95,100,34117,231839,283293
36730,95,100,33751,231852,283406
36740,95,100,33301,231908,283539
36750,95,100,32767,231951,283621
36760,95,100,32107,231994,283730
36770,95,100,31321,232040,283794
36780,95,100,30366,232050,283883
36790,95,100,29284,232064,283906
36800,95,100,28157,232111,283996
36810,95,100,26943,232126,284110
36820,95,100,25643,232149,284115
36830,95,100,24339,232186,284238
36840,95,100,23033,232209,284311
36850,95,100,21724,232262,284396
36860,95,100,20580,232329,284511
36870,95,100,19477,232333,284675
36880,95,100,18456,232388,284770
36890,95,100,17518,232457,284849
36900,95,100,16705,232490,284937
36910,95,100,15933,232555,285033
36920,95,100,15246,232541,285085
36930,95,100,14600,232478,284881
36940,95,100,13997,232311,284465
36950,95,100,13435,232021,283789
36960,95,100,13000,231688,282888
36970,95,100,12776,231367,281952
36980,95,100,12890,230945,280947
36990,95,100,13385,230704,280314
37000,95,100,14557,230556,279831
37010,95,100,16449,230472,279656
37020,95,100,19063,230490,279623
37030,95,100,22487,230490,279688
37040,95,100,26641,230542,279883
37050,95,100,31361,230640,279946
37060,95,100,36439,230646,280067
37070,95,100,41661,230689,280158
37080,95,100,46851,230724,280169
37090,95,100,51747,230719,280172
37100,95,100,56085,230678,280144
37110,95,100,59778,230714,280139
37120,95,100,62258,230734,280244
37130,95,100,62258,230817,280398
37140,95,100,62258,230849,280572
37150,95,100,62258,230951,280882
37160,95,100,62221,231025,281139
37170,95,100,61632,231120,281368
37180,95,100,60566,231196,281532
37190,95,100,59096,231169,281564
37200,95,100,57297,231171,281486
37210,95,100,55241,231144,281431
37220,95,100,53039,231073,281308
37230,95,100,50726,231077,281337
37240,95,100,48486,231106,281321
37250,95,100,46355,231137,281359
37260,95,100,44443,231173,281500
37270,95,100,42751,231234,281678
37280,95,100,41353,231237,281744
37290,95,100,40211,231350,281946
37300,95,100,39291,231416,282103
37310,95,100,38592,231441,282250
37320,95,100,38040,231508,282420
37330,95,100,37600,231574,282563
37340,95,100,37157,231557,282672
37350,95,100,36676,231674,282826
37360,95,100,36156,231702,282898
37370,95,100,35559,231741,283037
37380,95,100,34846,231742,283134
37390,95,100,34054,231781,283168
37400,95,100,33146,231767,283214
37410,95,100,32083,231814,283291
37420,95,100,30977,231816,283345
37430,95,100,29829,231885,283427
37440,95,100,28639,231912,283454
37450,95,100,27484,231979,283619
37460,95,100,26364,231965,283665
37470,95,100,25279,232057,283819
37480,95,100,24269,232037,283865
37490,95,100,23372,232146,284039
37500,95,100,22511,232179,284125
37510,95,100,21688,232233,284269
37520,95,100,20940,232240,284377
37530,95,100,20269,232251,284359
37540,95,100,19596,232186,284183
37550,95,100,18962,231998,283760
37560,95,100,18404,231706,282997
37570,95,100,17924,231362,282100
37580,95,100,17637,230953,281093
37590,95,100,17662,230644,280226
37600,95,100,18115,230371,279547
37610,95,100,19153,230298,279211
37620,95,100,20855,230193,279049
37630,95,100,23264,230235,279115
37640,95,100,26383,230251,279181
