TIMESTAMP,ECG
2023-12-11 02:17:29.269000+00:00,-24
2023-12-11 02:17:29.276874015+00:00,-11
2023-12-11 02:17:29.284748031+00:00,-11
2023-12-11 02:17:29.292622047+00:00,-6
2023-12-11 02:17:29.300496062+00:00,-12
2023-12-11 02:17:29.308370078+00:00,-9
2023-12-11 02:17:29.316244094+00:00,-2
2023-12-11 02:17:29.324118110+00:00,-3
2023-12-11 02:17:29.331992125+00:00,-7
2023-12-11 02:17:29.339866141+00:00,-21
2023-12-11 02:17:29.347740157+00:00,-29
2023-12-11 02:17:29.355614173+00:00,-37
2023-12-11 02:17:29.363488188+00:00,-46
2023-12-11 02:17:29.371362204+00:00,-50
2023-12-11 02:17:29.379236220+00:00,-80
2023-12-11 02:17:29.387110236+00:00,-68
2023-12-11 02:17:29.394984251+00:00,232
2023-12-11 02:17:29.402858267+00:00,704
2023-12-11 02:17:29.410732283+00:00,588
2023-12-11 02:17:29.418606299+00:00,-26
2023-12-11 02:17:29.426480314+00:00,-138
2023-12-11 02:17:29.434354330+00:00,-132
2023-12-11 02:17:29.442228346+00:00,-73
2023-12-11 02:17:29.450102362+00:00,-58
2023-12-11 02:17:29.457976377+00:00,-54
2023-12-11 02:17:29.465850393+00:00,-60
2023-12-11 02:17:29.473724409+00:00,-53
2023-12-11 02:17:29.481598425+00:00,-50
2023-12-11 02:17:29.489472440+00:00,-50
2023-12-11 02:17:29.497346456+00:00,-42
2023-12-11 02:17:29.505220472+00:00,-47
2023-12-11 02:17:29.513094488+00:00,-39
2023-12-11 02:17:29.520968503+00:00,-35
2023-12-11 02:17:29.528842519+00:00,-34
2023-12-11 02:17:29.536716535+00:00,-27
2023-12-11 02:17:29.544590551+00:00,-23
2023-12-11 02:17:29.552464566+00:00,-14
2023-12-11 02:17:29.560338582+00:00,-9
2023-12-11 02:17:29.568212598+00:00,-8
2023-12-11 02:17:29.576086614+00:00,-3
2023-12-11 02:17:29.583960629+00:00,-1
2023-12-11 02:17:29.591834645+00:00,5
2023-12-11 02:17:29.599708661+00:00,13
2023-12-11 02:17:29.607582677+00:00,16
2023-12-11 02:17:29.615456692+00:00,28
2023-12-11 02:17:29.623330708+00:00,27
2023-12-11 02:17:29.631204724+00:00,32
2023-12-11 02:17:29.639078740+00:00,44
2023-12-11 02:17:29.646952755+00:00,48
2023-12-11 02:17:29.654826771+00:00,64
2023-12-11 02:17:29.662700787+00:00,76
2023-12-11 02:17:29.670574803+00:00,84
2023-12-11 02:17:29.678448818+00:00,98
2023-12-11 02:17:29.686322834+00:00,103
2023-12-11 02:17:29.694196850+00:00,113
2023-12-11 02:17:29.702070866+00:00,116
2023-12-11 02:17:29.709944881+00:00,111
2023-12-11 02:17:29.717818897+00:00,110
2023-12-11 02:17:29.725692913+00:00,103
2023-12-11 02:17:29.733566929+00:00,91
2023-12-11 02:17:29.741440944+00:00,82
2023-12-11 02:17:29.749314960+00:00,66
2023-12-11 02:17:29.757188976+00:00,58
2023-12-11 02:17:29.765062992+00:00,39
2023-12-11 02:17:29.772937007+00:00,34
2023-12-11 02:17:29.780811023+00:00,24
2023-12-11 02:17:29.788685039+00:00,15
2023-12-11 02:17:29.796559055+00:00,16
2023-12-11 02:17:29.804433070+00:00,12
2023-12-11 02:17:29.812307086+00:00,7
2023-12-11 02:17:29.820181102+00:00,2
2023-12-11 02:17:29.828055118+00:00,0
2023-12-11 02:17:29.835929133+00:00,2
2023-12-11 02:17:29.843803149+00:00,1
2023-12-11 02:17:29.851677165+00:00,0
2023-12-11 02:17:29.859551181+00:00,4
2023-12-11 02:17:29.867425196+00:00,-4
2023-12-11 02:17:29.875299212+00:00,-1
2023-12-11 02:17:29.883173228+00:00,-2
2023-12-11 02:17:29.891047244+00:00,-12
2023-12-11 02:17:29.898921259+00:00,-10
2023-12-11 02:17:29.906795275+00:00,-13
2023-12-11 02:17:29.914669291+00:00,-13
2023-12-11 02:17:29.922543307+00:00,-14
2023-12-11 02:17:29.930417322+00:00,-17
2023-12-11 02:17:29.938291338+00:00,-16
2023-12-11 02:17:29.946165354+00:00,-15
2023-12-11 02:17:29.954039370+00:00,-15
2023-12-11 02:17:29.961913385+00:00,-15
2023-12-11 02:17:29.969787401+00:00,-14
2023-12-11 02:17:29.977661417+00:00,-15
2023-12-11 02:17:29.985535433+00:00,-20
2023-12-11 02:17:29.993409448+00:00,-22
2023-12-11 02:17:30.001283464+00:00,-16
2023-12-11 02:17:30.009157480+00:00,-21
2023-12-11 02:17:30.017031496+00:00,-22
2023-12-11 02:17:30.024905511+00:00,-16
2023-12-11 02:17:30.032779527+00:00,-21
2023-12-11 02:17:30.040653543+00:00,-21
2023-12-11 02:17:30.048527559+00:00,-19
2023-12-11 02:17:30.056401574+00:00,-21
2023-12-11 02:17:30.064275590+00:00,-26
2023-12-11 02:17:30.072149606+00:00,-28
2023-12-11 02:17:30.080023622+00:00,-24
2023-12-11 02:17:30.087897637+00:00,-22
2023-12-11 02:17:30.095771653+00:00,-6
2023-12-11 02:17:30.103645669+00:00,5
2023-12-11 02:17:30.111519685+00:00,7
2023-12-11 02:17:30.119393700+00:00,9
2023-12-11 02:17:30.127267716+00:00,5
2023-12-11 02:17:30.135141732+00:00,10
2023-12-11 02:17:30.143015748+00:00,21
2023-12-11 02:17:30.150889763+00:00,9
2023-12-11 02:17:30.158763779+00:00,1
2023-12-11 02:17:30.166637795+00:00,-10
2023-12-11 02:17:30.174511811+00:00,-27
2023-12-11 02:17:30.182385826+00:00,-24
2023-12-11 02:17:30.190259842+00:00,-24
2023-12-11 02:17:30.198133858+00:00,-43
2023-12-11 02:17:30.206007874+00:00,-71
2023-12-11 02:17:30.213881889+00:00,33
2023-12-11 02:17:30.221755905+00:00,446
2023-12-11 02:17:30.229629921+00:00,704
2023-12-11 02:17:30.237503937+00:00,242
2023-12-11 02:17:30.245377952+00:00,-83
2023-12-11 02:17:30.253251968+00:00,-105
2023-12-11 02:17:30.261125984+00:00,-58
2023-12-11 02:17:30.269000+00:00,-41
2023-12-11 02:17:30.269000+00:00,-39
2023-12-11 02:17:30.276874015+00:00,-41
2023-12-11 02:17:30.284748031+00:00,-40
2023-12-11 02:17:30.292622047+00:00,-35
2023-12-11 02:17:30.300496062+00:00,-31
2023-12-11 02:17:30.308370078+00:00,-31
2023-12-11 02:17:30.316244094+00:00,-23
2023-12-11 02:17:30.324118110+00:00,-24
2023-12-11 02:17:30.331992125+00:00,-19
2023-12-11 02:17:30.339866141+00:00,-19
2023-12-11 02:17:30.347740157+00:00,-23
2023-12-11 02:17:30.355614173+00:00,-7
2023-12-11 02:17:30.363488188+00:00,-11
2023-12-11 02:17:30.371362204+00:00,-4
2023-12-11 02:17:30.379236220+00:00,0
2023-12-11 02:17:30.387110236+00:00,-3
2023-12-11 02:17:30.394984251+00:00,3
2023-12-11 02:17:30.402858267+00:00,5
2023-12-11 02:17:30.410732283+00:00,5
2023-12-11 02:17:30.418606299+00:00,17
2023-12-11 02:17:30.426480314+00:00,17
2023-12-11 02:17:30.434354330+00:00,29
2023-12-11 02:17:30.442228346+00:00,34
2023-12-11 02:17:30.450102362+00:00,40
2023-12-11 02:17:30.457976377+00:00,52
2023-12-11 02:17:30.465850393+00:00,61
2023-12-11 02:17:30.473724409+00:00,76
2023-12-11 02:17:30.481598425+00:00,84
2023-12-11 02:17:30.489472440+00:00,92
2023-12-11 02:17:30.497346456+00:00,104
2023-12-11 02:17:30.505220472+00:00,109
2023-12-11 02:17:30.513094488+00:00,111
2023-12-11 02:17:30.520968503+00:00,110
2023-12-11 02:17:30.528842519+00:00,104
2023-12-11 02:17:30.536716535+00:00,110
2023-12-11 02:17:30.544590551+00:00,99
2023-12-11 02:17:30.552464566+00:00,90
2023-12-11 02:17:30.560338582+00:00,73
2023-12-11 02:17:30.568212598+00:00,59
2023-12-11 02:17:30.576086614+00:00,52
2023-12-11 02:17:30.583960629+00:00,34
2023-12-11 02:17:30.591834645+00:00,27
2023-12-11 02:17:30.599708661+00:00,26
2023-12-11 02:17:30.607582677+00:00,11
2023-12-11 02:17:30.615456692+00:00,13
2023-12-11 02:17:30.623330708+00:00,6
2023-12-11 02:17:30.631204724+00:00,5
2023-12-11 02:17:30.639078740+00:00,11
2023-12-11 02:17:30.646952755+00:00,-2
2023-12-11 02:17:30.654826771+00:00,1
2023-12-11 02:17:30.662700787+00:00,3
2023-12-11 02:17:30.670574803+00:00,1
2023-12-11 02:17:30.678448818+00:00,11
2023-12-11 02:17:30.686322834+00:00,6
2023-12-11 02:17:30.694196850+00:00,4
2023-12-11 02:17:30.702070866+00:00,-1
2023-12-11 02:17:30.709944881+00:00,-5
2023-12-11 02:17:30.717818897+00:00,-2
2023-12-11 02:17:30.725692913+00:00,-5
2023-12-11 02:17:30.733566929+00:00,-6
2023-12-11 02:17:30.741440944+00:00,-1
2023-12-11 02:17:30.749314960+00:00,-9
2023-12-11 02:17:30.757188976+00:00,-6
2023-12-11 02:17:30.765062992+00:00,-10
2023-12-11 02:17:30.772937007+00:00,-18
2023-12-11 02:17:30.780811023+00:00,-13
2023-12-11 02:17:30.788685039+00:00,-21
2023-12-11 02:17:30.796559055+00:00,-12
2023-12-11 02:17:30.804433070+00:00,-14
2023-12-11 02:17:30.812307086+00:00,-13
2023-12-11 02:17:30.820181102+00:00,-10
2023-12-11 02:17:30.828055118+00:00,-20
2023-12-11 02:17:30.835929133+00:00,-13
2023-12-11 02:17:30.843803149+00:00,-14
2023-12-11 02:17:30.851677165+00:00,-20
2023-12-11 02:17:30.859551181+00:00,-21
2023-12-11 02:17:30.867425196+00:00,-26
2023-12-11 02:17:30.875299212+00:00,-25
2023-12-11 02:17:30.883173228+00:00,-20
2023-12-11 02:17:30.891047244+00:00,-27
2023-12-11 02:17:30.898921259+00:00,-24
2023-12-11 02:17:30.906795275+00:00,-14
2023-12-11 02:17:30.914669291+00:00,-5
2023-12-11 02:17:30.922543307+00:00,10
2023-12-11 02:17:30.930417322+00:00,5
2023-12-11 02:17:30.938291338+00:00,-2
2023-12-11 02:17:30.946165354+00:00,-3
2023-12-11 02:17:30.954039370+00:00,3
2023-12-11 02:17:30.961913385+00:00,4
2023-12-11 02:17:30.969787401+00:00,-12
2023-12-11 02:17:30.977661417+00:00,-14
2023-12-11 02:17:30.985535433+00:00,-26
2023-12-11 02:17:30.993409448+00:00,-43
2023-12-11 02:17:31.001283464+00:00,-38
2023-12-11 02:17:31.009157480+00:00,-48
2023-12-11 02:17:31.017031496+00:00,-78
2023-12-11 02:17:31.024905511+00:00,-45
2023-12-11 02:17:31.032779527+00:00,301
2023-12-11 02:17:31.040653543+00:00,726
2023-12-11 02:17:31.048527559+00:00,451
2023-12-11 02:17:31.056401574+00:00,-63
2023-12-11 02:17:31.064275590+00:00,-114
2023-12-11 02:17:31.072149606+00:00,-80
2023-12-11 02:17:31.080023622+00:00,-48
2023-12-11 02:17:31.087897637+00:00,-54
2023-12-11 02:17:31.095771653+00:00,-56
2023-12-11 02:17:31.103645669+00:00,-48
2023-12-11 02:17:31.111519685+00:00,-56
2023-12-11 02:17:31.119393700+00:00,-50
2023-12-11 02:17:31.127267716+00:00,-45
2023-12-11 02:17:31.135141732+00:00,-49
2023-12-11 02:17:31.143015748+00:00,-41
2023-12-11 02:17:31.150889763+00:00,-46
2023-12-11 02:17:31.158763779+00:00,-40
2023-12-11 02:17:31.166637795+00:00,-41
2023-12-11 02:17:31.174511811+00:00,-43
2023-12-11 02:17:31.182385826+00:00,-33
2023-12-11 02:17:31.190259842+00:00,-40
2023-12-11 02:17:31.198133858+00:00,-32
2023-12-11 02:17:31.206007874+00:00,-27
2023-12-11 02:17:31.213881889+00:00,-26
2023-12-11 02:17:31.221755905+00:00,-21
2023-12-11 02:17:31.229629921+00:00,-20
2023-12-11 02:17:31.237503937+00:00,-14
2023-12-11 02:17:31.245377952+00:00,-11
2023-12-11 02:17:31.253251968+00:00,-11
2023-12-11 02:17:31.261125984+00:00,1
2023-12-11 02:17:31.269000+00:00,6
2023-12-11 02:17:31.269000+00:00,11
2023-12-11 02:17:31.276874015+00:00,29
2023-12-11 02:17:31.284748031+00:00,35
2023-12-11 02:17:31.292622047+00:00,48
2023-12-11 02:17:31.300496062+00:00,58
2023-12-11 02:17:31.308370078+00:00,70
2023-12-11 02:17:31.316244094+00:00,81
2023-12-11 02:17:31.324118110+00:00,78
2023-12-11 02:17:31.331992125+00:00,87
2023-12-11 02:17:31.339866141+00:00,84
2023-12-11 02:17:31.347740157+00:00,76
2023-12-11 02:17:31.355614173+00:00,74
2023-12-11 02:17:31.363488188+00:00,64
2023-12-11 02:17:31.371362204+00:00,52
2023-12-11 02:17:31.379236220+00:00,42
2023-12-11 02:17:31.387110236+00:00,26
2023-12-11 02:17:31.394984251+00:00,20
2023-12-11 02:17:31.402858267+00:00,9
2023-12-11 02:17:31.410732283+00:00,-5
2023-12-11 02:17:31.418606299+00:00,-13
2023-12-11 02:17:31.426480314+00:00,-24
2023-12-11 02:17:31.434354330+00:00,-21
2023-12-11 02:17:31.442228346+00:00,-27
2023-12-11 02:17:31.450102362+00:00,-28
2023-12-11 02:17:31.457976377+00:00,-26
2023-12-11 02:17:31.465850393+00:00,-32
2023-12-11 02:17:31.473724409+00:00,-26
2023-12-11 02:17:31.481598425+00:00,-24
2023-12-11 02:17:31.489472440+00:00,-32
2023-12-11 02:17:31.497346456+00:00,-27
2023-12-11 02:17:31.505220472+00:00,-29
2023-12-11 02:17:31.513094488+00:00,-29
2023-12-11 02:17:31.520968503+00:00,-32
2023-12-11 02:17:31.528842519+00:00,-38
2023-12-11 02:17:31.536716535+00:00,-36
2023-12-11 02:17:31.544590551+00:00,-43
2023-12-11 02:17:31.552464566+00:00,-45
2023-12-11 02:17:31.560338582+00:00,-41
2023-12-11 02:17:31.568212598+00:00,-47
2023-12-11 02:17:31.576086614+00:00,-46
2023-12-11 02:17:31.583960629+00:00,-47
2023-12-11 02:17:31.591834645+00:00,-45
2023-12-11 02:17:31.599708661+00:00,-41
2023-12-11 02:17:31.607582677+00:00,-49
2023-12-11 02:17:31.615456692+00:00,-43
2023-12-11 02:17:31.623330708+00:00,-48
2023-12-11 02:17:31.631204724+00:00,-53
2023-12-11 02:17:31.639078740+00:00,-46
2023-12-11 02:17:31.646952755+00:00,-54
2023-12-11 02:17:31.654826771+00:00,-53
2023-12-11 02:17:31.662700787+00:00,-50
2023-12-11 02:17:31.670574803+00:00,-54
2023-12-11 02:17:31.678448818+00:00,-49
2023-12-11 02:17:31.686322834+00:00,-54
2023-12-11 02:17:31.694196850+00:00,-55
2023-12-11 02:17:31.702070866+00:00,-57
2023-12-11 02:17:31.709944881+00:00,-53
2023-12-11 02:17:31.717818897+00:00,-38
2023-12-11 02:17:31.725692913+00:00,-25
2023-12-11 02:17:31.733566929+00:00,-19
2023-12-11 02:17:31.741440944+00:00,-19
2023-12-11 02:17:31.749314960+00:00,-27
2023-12-11 02:17:31.757188976+00:00,-18
2023-12-11 02:17:31.765062992+00:00,-10
2023-12-11 02:17:31.772937007+00:00,-18
2023-12-11 02:17:31.780811023+00:00,-19
2023-12-11 02:17:31.788685039+00:00,-34
2023-12-11 02:17:31.796559055+00:00,-42
2023-12-11 02:17:31.804433070+00:00,-53
2023-12-11 02:17:31.812307086+00:00,-58
2023-12-11 02:17:31.820181102+00:00,-55
2023-12-11 02:17:31.828055118+00:00,-93
2023-12-11 02:17:31.835929133+00:00,-77
2023-12-11 02:17:31.843803149+00:00,219
2023-12-11 02:17:31.851677165+00:00,702
2023-12-11 02:17:31.859551181+00:00,588
2023-12-11 02:17:31.867425196+00:00,-43
2023-12-11 02:17:31.875299212+00:00,-151
2023-12-11 02:17:31.883173228+00:00,-152
2023-12-11 02:17:31.891047244+00:00,-93
2023-12-11 02:17:31.898921259+00:00,-75
2023-12-11 02:17:31.906795275+00:00,-79
2023-12-11 02:17:31.914669291+00:00,-76
2023-12-11 02:17:31.922543307+00:00,-64
2023-12-11 02:17:31.930417322+00:00,-62
2023-12-11 02:17:31.938291338+00:00,-58
2023-12-11 02:17:31.946165354+00:00,-59
2023-12-11 02:17:31.954039370+00:00,-55
2023-12-11 02:17:31.961913385+00:00,-49
2023-12-11 02:17:31.969787401+00:00,-46
2023-12-11 02:17:31.977661417+00:00,-44
2023-12-11 02:17:31.985535433+00:00,-43
2023-12-11 02:17:31.993409448+00:00,-41
2023-12-11 02:17:32.001283464+00:00,-33
2023-12-11 02:17:32.009157480+00:00,-36
2023-12-11 02:17:32.017031496+00:00,-35
2023-12-11 02:17:32.024905511+00:00,-33
2023-12-11 02:17:32.032779527+00:00,-35
2023-12-11 02:17:32.040653543+00:00,-28
2023-12-11 02:17:32.048527559+00:00,-20
2023-12-11 02:17:32.056401574+00:00,-18
2023-12-11 02:17:32.064275590+00:00,-8
2023-12-11 02:17:32.072149606+00:00,-6
2023-12-11 02:17:32.080023622+00:00,4
2023-12-11 02:17:32.087897637+00:00,18
2023-12-11 02:17:32.095771653+00:00,26
2023-12-11 02:17:32.103645669+00:00,46
2023-12-11 02:17:32.111519685+00:00,53
2023-12-11 02:17:32.119393700+00:00,71
2023-12-11 02:17:32.127267716+00:00,81
2023-12-11 02:17:32.135141732+00:00,88
2023-12-11 02:17:32.143015748+00:00,98
2023-12-11 02:17:32.150889763+00:00,97
2023-12-11 02:17:32.158763779+00:00,99
2023-12-11 02:17:32.166637795+00:00,88
2023-12-11 02:17:32.174511811+00:00,78
2023-12-11 02:17:32.182385826+00:00,76
2023-12-11 02:17:32.190259842+00:00,62
2023-12-11 02:17:32.198133858+00:00,48
2023-12-11 02:17:32.206007874+00:00,40
2023-12-11 02:17:32.213881889+00:00,25
2023-12-11 02:17:32.221755905+00:00,18
2023-12-11 02:17:32.229629921+00:00,5
2023-12-11 02:17:32.237503937+00:00,-4
2023-12-11 02:17:32.245377952+00:00,-9
2023-12-11 02:17:32.253251968+00:00,-19
2023-12-11 02:17:32.261125984+00:00,-18
2023-12-11 02:17:32.269000+00:00,-23
2023-12-11 02:17:32.269000+00:00,-26
2023-12-11 02:17:32.276874015+00:00,-31
2023-12-11 02:17:32.284748031+00:00,-37
2023-12-11 02:17:32.292622047+00:00,-38
2023-12-11 02:17:32.300496062+00:00,-39
2023-12-11 02:17:32.308370078+00:00,-45
2023-12-11 02:17:32.316244094+00:00,-45
2023-12-11 02:17:32.324118110+00:00,-46
2023-12-11 02:17:32.331992125+00:00,-49
2023-12-11 02:17:32.339866141+00:00,-49
2023-12-11 02:17:32.347740157+00:00,-51
2023-12-11 02:17:32.355614173+00:00,-52
2023-12-11 02:17:32.363488188+00:00,-57
2023-12-11 02:17:32.371362204+00:00,-58
2023-12-11 02:17:32.379236220+00:00,-56
2023-12-11 02:17:32.387110236+00:00,-62
2023-12-11 02:17:32.394984251+00:00,-56
2023-12-11 02:17:32.402858267+00:00,-57
2023-12-11 02:17:32.410732283+00:00,-64
2023-12-11 02:17:32.418606299+00:00,-60
2023-12-11 02:17:32.426480314+00:00,-65
2023-12-11 02:17:32.434354330+00:00,-63
2023-12-11 02:17:32.442228346+00:00,-62
2023-12-11 02:17:32.450102362+00:00,-64
2023-12-11 02:17:32.457976377+00:00,-57
2023-12-11 02:17:32.465850393+00:00,-61
2023-12-11 02:17:32.473724409+00:00,-51
2023-12-11 02:17:32.481598425+00:00,-49
2023-12-11 02:17:32.489472440+00:00,-56
2023-12-11 02:17:32.497346456+00:00,-49
2023-12-11 02:17:32.505220472+00:00,-52
2023-12-11 02:17:32.513094488+00:00,-52
2023-12-11 02:17:32.520968503+00:00,-43
2023-12-11 02:17:32.528842519+00:00,-41
2023-12-11 02:17:32.536716535+00:00,-27
2023-12-11 02:17:32.544590551+00:00,-25
2023-12-11 02:17:32.552464566+00:00,-22
2023-12-11 02:17:32.560338582+00:00,-29
2023-12-11 02:17:32.568212598+00:00,-28
2023-12-11 02:17:32.576086614+00:00,-13
2023-12-11 02:17:32.583960629+00:00,-18
2023-12-11 02:17:32.591834645+00:00,-26
2023-12-11 02:17:32.599708661+00:00,-33
2023-12-11 02:17:32.607582677+00:00,-54
2023-12-11 02:17:32.615456692+00:00,-53
2023-12-11 02:17:32.623330708+00:00,-58
2023-12-11 02:17:32.631204724+00:00,-64
2023-12-11 02:17:32.639078740+00:00,-90
2023-12-11 02:17:32.646952755+00:00,-71
2023-12-11 02:17:32.654826771+00:00,252
2023-12-11 02:17:32.662700787+00:00,679
2023-12-11 02:17:32.670574803+00:00,478
2023-12-11 02:17:32.678448818+00:00,-53
2023-12-11 02:17:32.686322834+00:00,-145
2023-12-11 02:17:32.694196850+00:00,-134
2023-12-11 02:17:32.702070866+00:00,-71
2023-12-11 02:17:32.709944881+00:00,-71
2023-12-11 02:17:32.717818897+00:00,-63
2023-12-11 02:17:32.725692913+00:00,-68
2023-12-11 02:17:32.733566929+00:00,-63
2023-12-11 02:17:32.741440944+00:00,-55
2023-12-11 02:17:32.749314960+00:00,-56
2023-12-11 02:17:32.757188976+00:00,-49
2023-12-11 02:17:32.765062992+00:00,-52
2023-12-11 02:17:32.772937007+00:00,-53
2023-12-11 02:17:32.780811023+00:00,-42
2023-12-11 02:17:32.788685039+00:00,-47
2023-12-11 02:17:32.796559055+00:00,-38
2023-12-11 02:17:32.804433070+00:00,-33
2023-12-11 02:17:32.812307086+00:00,-31
2023-12-11 02:17:32.820181102+00:00,-20
2023-12-11 02:17:32.828055118+00:00,-26
2023-12-11 02:17:32.835929133+00:00,-17
2023-12-11 02:17:32.843803149+00:00,-21
2023-12-11 02:17:32.851677165+00:00,-20
2023-12-11 02:17:32.859551181+00:00,-9
2023-12-11 02:17:32.867425196+00:00,-8
2023-12-11 02:17:32.875299212+00:00,-2
2023-12-11 02:17:32.883173228+00:00,8
2023-12-11 02:17:32.891047244+00:00,11
2023-12-11 02:17:32.898921259+00:00,29
2023-12-11 02:17:32.906795275+00:00,30
2023-12-11 02:17:32.914669291+00:00,43
2023-12-11 02:17:32.922543307+00:00,58
2023-12-11 02:17:32.930417322+00:00,58
2023-12-11 02:17:32.938291338+00:00,78
2023-12-11 02:17:32.946165354+00:00,85
2023-12-11 02:17:32.954039370+00:00,90
2023-12-11 02:17:32.961913385+00:00,97
2023-12-11 02:17:32.969787401+00:00,91
2023-12-11 02:17:32.977661417+00:00,92
2023-12-11 02:17:32.985535433+00:00,87
2023-12-11 02:17:32.993409448+00:00,70
2023-12-11 02:17:33.001283464+00:00,65
2023-12-11 02:17:33.009157480+00:00,43
2023-12-11 02:17:33.017031496+00:00,39
2023-12-11 02:17:33.024905511+00:00,20
2023-12-11 02:17:33.032779527+00:00,5
2023-12-11 02:17:33.040653543+00:00,3
2023-12-11 02:17:33.048527559+00:00,-13
2023-12-11 02:17:33.056401574+00:00,-14
2023-12-11 02:17:33.064275590+00:00,-13
2023-12-11 02:17:33.072149606+00:00,-18
2023-12-11 02:17:33.080023622+00:00,-8
2023-12-11 02:17:33.087897637+00:00,-16
2023-12-11 02:17:33.095771653+00:00,-20
2023-12-11 02:17:33.103645669+00:00,-15
2023-12-11 02:17:33.111519685+00:00,-21
2023-12-11 02:17:33.119393700+00:00,-16
2023-12-11 02:17:33.127267716+00:00,-21
2023-12-11 02:17:33.135141732+00:00,-26
2023-12-11 02:17:33.143015748+00:00,-21
2023-12-11 02:17:33.150889763+00:00,-33
2023-12-11 02:17:33.158763779+00:00,-27
2023-12-11 02:17:33.166637795+00:00,-26
2023-12-11 02:17:33.174511811+00:00,-39
2023-12-11 02:17:33.182385826+00:00,-28
2023-12-11 02:17:33.190259842+00:00,-40
2023-12-11 02:17:33.198133858+00:00,-31
2023-12-11 02:17:33.206007874+00:00,-32
2023-12-11 02:17:33.213881889+00:00,-39
2023-12-11 02:17:33.221755905+00:00,-25
2023-12-11 02:17:33.229629921+00:00,-36
2023-12-11 02:17:33.237503937+00:00,-34
2023-12-11 02:17:33.245377952+00:00,-28
2023-12-11 02:17:33.253251968+00:00,-34
2023-12-11 02:17:33.261125984+00:00,-29
2023-12-11 02:17:33.269000+00:00,-38
2023-12-11 02:17:33.269000+00:00,-36
2023-12-11 02:17:33.276874015+00:00,-28
2023-12-11 02:17:33.284748031+00:00,-43
2023-12-11 02:17:33.292622047+00:00,-27
2023-12-11 02:17:33.300496062+00:00,-34
2023-12-11 02:17:33.308370078+00:00,-40
2023-12-11 02:17:33.316244094+00:00,-28
2023-12-11 02:17:33.324118110+00:00,-37
2023-12-11 02:17:33.331992125+00:00,-33
2023-12-11 02:17:33.339866141+00:00,-23
2023-12-11 02:17:33.347740157+00:00,-17
2023-12-11 02:17:33.355614173+00:00,-1
2023-12-11 02:17:33.363488188+00:00,-11
2023-12-11 02:17:33.371362204+00:00,-17
2023-12-11 02:17:33.379236220+00:00,-10
2023-12-11 02:17:33.387110236+00:00,-8
2023-12-11 02:17:33.394984251+00:00,0
2023-12-11 02:17:33.402858267+00:00,-21
2023-12-11 02:17:33.410732283+00:00,-24
2023-12-11 02:17:33.418606299+00:00,-32
2023-12-11 02:17:33.426480314+00:00,-46
2023-12-11 02:17:33.434354330+00:00,-42
2023-12-11 02:17:33.442228346+00:00,-55
2023-12-11 02:17:33.450102362+00:00,-91
2023-12-11 02:17:33.457976377+00:00,9
2023-12-11 02:17:33.465850393+00:00,393
2023-12-11 02:17:33.473724409+00:00,698
2023-12-11 02:17:33.481598425+00:00,276
2023-12-11 02:17:33.489472440+00:00,-94
2023-12-11 02:17:33.497346456+00:00,-104
2023-12-11 02:17:33.505220472+00:00,-68
2023-12-11 02:17:33.513094488+00:00,-49
2023-12-11 02:17:33.520968503+00:00,-50
2023-12-11 02:17:33.528842519+00:00,-63
2023-12-11 02:17:33.536716535+00:00,-50
2023-12-11 02:17:33.544590551+00:00,-53
2023-12-11 02:17:33.552464566+00:00,-43
2023-12-11 02:17:33.560338582+00:00,-37
2023-12-11 02:17:33.568212598+00:00,-46
2023-12-11 02:17:33.576086614+00:00,-34
2023-12-11 02:17:33.583960629+00:00,-37
2023-12-11 02:17:33.591834645+00:00,-38
2023-12-11 02:17:33.599708661+00:00,-26
2023-12-11 02:17:33.607582677+00:00,-33
2023-12-11 02:17:33.615456692+00:00,-23
2023-12-11 02:17:33.623330708+00:00,-26
2023-12-11 02:17:33.631204724+00:00,-25
2023-12-11 02:17:33.639078740+00:00,-15
2023-12-11 02:17:33.646952755+00:00,-22
2023-12-11 02:17:33.654826771+00:00,-9
2023-12-11 02:17:33.662700787+00:00,-9
2023-12-11 02:17:33.670574803+00:00,-10
2023-12-11 02:17:33.678448818+00:00,5
2023-12-11 02:17:33.686322834+00:00,1
2023-12-11 02:17:33.694196850+00:00,12
2023-12-11 02:17:33.702070866+00:00,22
2023-12-11 02:17:33.709944881+00:00,21
2023-12-11 02:17:33.717818897+00:00,37
2023-12-11 02:17:33.725692913+00:00,43
2023-12-11 02:17:33.733566929+00:00,51
2023-12-11 02:17:33.741440944+00:00,70
2023-12-11 02:17:33.749314960+00:00,70
2023-12-11 02:17:33.757188976+00:00,89
2023-12-11 02:17:33.765062992+00:00,87
2023-12-11 02:17:33.772937007+00:00,85
2023-12-11 02:17:33.780811023+00:00,90
2023-12-11 02:17:33.788685039+00:00,79
2023-12-11 02:17:33.796559055+00:00,80
2023-12-11 02:17:33.804433070+00:00,68
2023-12-11 02:17:33.812307086+00:00,49
2023-12-11 02:17:33.820181102+00:00,46
2023-12-11 02:17:33.828055118+00:00,27
2023-12-11 02:17:33.835929133+00:00,19
2023-12-11 02:17:33.843803149+00:00,7
2023-12-11 02:17:33.851677165+00:00,-18
2023-12-11 02:17:33.859551181+00:00,-18
2023-12-11 02:17:33.867425196+00:00,-32
2023-12-11 02:17:33.875299212+00:00,-28
2023-12-11 02:17:33.883173228+00:00,-25
2023-12-11 02:17:33.891047244+00:00,-31
2023-12-11 02:17:33.898921259+00:00,-22
2023-12-11 02:17:33.906795275+00:00,-23
2023-12-11 02:17:33.914669291+00:00,-28
2023-12-11 02:17:33.922543307+00:00,-18
2023-12-11 02:17:33.930417322+00:00,-29
2023-12-11 02:17:33.938291338+00:00,-26
2023-12-11 02:17:33.946165354+00:00,-33
2023-12-11 02:17:33.954039370+00:00,-39
2023-12-11 02:17:33.961913385+00:00,-33
2023-12-11 02:17:33.969787401+00:00,-45
2023-12-11 02:17:33.977661417+00:00,-44
2023-12-11 02:17:33.985535433+00:00,-44
2023-12-11 02:17:33.993409448+00:00,-50
2023-12-11 02:17:34.001283464+00:00,-46
2023-12-11 02:17:34.009157480+00:00,-49
2023-12-11 02:17:34.017031496+00:00,-47
2023-12-11 02:17:34.024905511+00:00,-44
2023-12-11 02:17:34.032779527+00:00,-47
2023-12-11 02:17:34.040653543+00:00,-40
2023-12-11 02:17:34.048527559+00:00,-48
2023-12-11 02:17:34.056401574+00:00,-45
2023-12-11 02:17:34.064275590+00:00,-41
2023-12-11 02:17:34.072149606+00:00,-52
2023-12-11 02:17:34.080023622+00:00,-44
2023-12-11 02:17:34.087897637+00:00,-50
2023-12-11 02:17:34.095771653+00:00,-54
2023-12-11 02:17:34.103645669+00:00,-49
2023-12-11 02:17:34.111519685+00:00,-57
2023-12-11 02:17:34.119393700+00:00,-46
2023-12-11 02:17:34.127267716+00:00,-49
2023-12-11 02:17:34.135141732+00:00,-55
2023-12-11 02:17:34.143015748+00:00,-48
2023-12-11 02:17:34.150889763+00:00,-48
2023-12-11 02:17:34.158763779+00:00,-29
2023-12-11 02:17:34.166637795+00:00,-17
2023-12-11 02:17:34.174511811+00:00,-20
2023-12-11 02:17:34.182385826+00:00,-18
2023-12-11 02:17:34.190259842+00:00,-24
2023-12-11 02:17:34.198133858+00:00,-17
2023-12-11 02:17:34.206007874+00:00,-7
2023-12-11 02:17:34.213881889+00:00,-23
2023-12-11 02:17:34.221755905+00:00,-27
2023-12-11 02:17:34.229629921+00:00,-40
2023-12-11 02:17:34.237503937+00:00,-54
2023-12-11 02:17:34.245377952+00:00,-49
2023-12-11 02:17:34.253251968+00:00,-64
2023-12-11 02:17:34.261125984+00:00,-78
2023-12-11 02:17:34.269000+00:00,-85
2023-12-11 02:17:34.269000+00:00,149
2023-12-11 02:17:34.276874015+00:00,645
2023-12-11 02:17:34.284748031+00:00,634
2023-12-11 02:17:34.292622047+00:00,21
2023-12-11 02:17:34.300496062+00:00,-137
2023-12-11 02:17:34.308370078+00:00,-137
2023-12-11 02:17:34.316244094+00:00,-74
2023-12-11 02:17:34.324118110+00:00,-73
2023-12-11 02:17:34.331992125+00:00,-74
2023-12-11 02:17:34.339866141+00:00,-65
2023-12-11 02:17:34.347740157+00:00,-71
2023-12-11 02:17:34.355614173+00:00,-60
2023-12-11 02:17:34.363488188+00:00,-66
2023-12-11 02:17:34.371362204+00:00,-60
2023-12-11 02:17:34.379236220+00:00,-53
2023-12-11 02:17:34.387110236+00:00,-55
2023-12-11 02:17:34.394984251+00:00,-46
2023-12-11 02:17:34.402858267+00:00,-48
2023-12-11 02:17:34.410732283+00:00,-43
2023-12-11 02:17:34.418606299+00:00,-32
2023-12-11 02:17:34.426480314+00:00,-37
2023-12-11 02:17:34.434354330+00:00,-28
2023-12-11 02:17:34.442228346+00:00,-27
2023-12-11 02:17:34.450102362+00:00,-28
2023-12-11 02:17:34.457976377+00:00,-16
2023-12-11 02:17:34.465850393+00:00,-22
2023-12-11 02:17:34.473724409+00:00,-13
2023-12-11 02:17:34.481598425+00:00,-6
2023-12-11 02:17:34.489472440+00:00,-6
2023-12-11 02:17:34.497346456+00:00,9
2023-12-11 02:17:34.505220472+00:00,3
2023-12-11 02:17:34.513094488+00:00,20
2023-12-11 02:17:34.520968503+00:00,35
2023-12-11 02:17:34.528842519+00:00,40
2023-12-11 02:17:34.536716535+00:00,58
2023-12-11 02:17:34.544590551+00:00,66
2023-12-11 02:17:34.552464566+00:00,77
2023-12-11 02:17:34.560338582+00:00,89
2023-12-11 02:17:34.568212598+00:00,92
2023-12-11 02:17:34.576086614+00:00,100
2023-12-11 02:17:34.583960629+00:00,95
2023-12-11 02:17:34.591834645+00:00,89
2023-12-11 02:17:34.599708661+00:00,95
2023-12-11 02:17:34.607582677+00:00,72
2023-12-11 02:17:34.615456692+00:00,70
2023-12-11 02:17:34.623330708+00:00,58
2023-12-11 02:17:34.631204724+00:00,42
2023-12-11 02:17:34.639078740+00:00,39
2023-12-11 02:17:34.646952755+00:00,18
2023-12-11 02:17:34.654826771+00:00,10
2023-12-11 02:17:34.662700787+00:00,5
2023-12-11 02:17:34.670574803+00:00,-7
2023-12-11 02:17:34.678448818+00:00,1
2023-12-11 02:17:34.686322834+00:00,-5
2023-12-11 02:17:34.694196850+00:00,-10
2023-12-11 02:17:34.702070866+00:00,-12
2023-12-11 02:17:34.709944881+00:00,-16
2023-12-11 02:17:34.717818897+00:00,-13
2023-12-11 02:17:34.725692913+00:00,-15
2023-12-11 02:17:34.733566929+00:00,-14
2023-12-11 02:17:34.741440944+00:00,-15
2023-12-11 02:17:34.749314960+00:00,-26
2023-12-11 02:17:34.757188976+00:00,-18
2023-12-11 02:17:34.765062992+00:00,-25
2023-12-11 02:17:34.772937007+00:00,-32
2023-12-11 02:17:34.780811023+00:00,-30
2023-12-11 02:17:34.788685039+00:00,-37
2023-12-11 02:17:34.796559055+00:00,-35
2023-12-11 02:17:34.804433070+00:00,-33
2023-12-11 02:17:34.812307086+00:00,-42
2023-12-11 02:17:34.820181102+00:00,-33
2023-12-11 02:17:34.828055118+00:00,-44
2023-12-11 02:17:34.835929133+00:00,-39
2023-12-11 02:17:34.843803149+00:00,-37
2023-12-11 02:17:34.851677165+00:00,-46
2023-12-11 02:17:34.859551181+00:00,-40
2023-12-11 02:17:34.867425196+00:00,-46
2023-12-11 02:17:34.875299212+00:00,-47
2023-12-11 02:17:34.883173228+00:00,-36
2023-12-11 02:17:34.891047244+00:00,-52
2023-12-11 02:17:34.898921259+00:00,-41
2023-12-11 02:17:34.906795275+00:00,-47
2023-12-11 02:17:34.914669291+00:00,-48
2023-12-11 02:17:34.922543307+00:00,-44
2023-12-11 02:17:34.930417322+00:00,-51
2023-12-11 02:17:34.938291338+00:00,-42
2023-12-11 02:17:34.946165354+00:00,-40
2023-12-11 02:17:34.954039370+00:00,-44
2023-12-11 02:17:34.961913385+00:00,-22
2023-12-11 02:17:34.969787401+00:00,-21
2023-12-11 02:17:34.977661417+00:00,-12
2023-12-11 02:17:34.985535433+00:00,-10
2023-12-11 02:17:34.993409448+00:00,-15
2023-12-11 02:17:35.001283464+00:00,1
2023-12-11 02:17:35.009157480+00:00,-9
2023-12-11 02:17:35.017031496+00:00,-12
2023-12-11 02:17:35.024905511+00:00,-22
2023-12-11 02:17:35.032779527+00:00,-34
2023-12-11 02:17:35.040653543+00:00,-39
2023-12-11 02:17:35.048527559+00:00,-52
2023-12-11 02:17:35.056401574+00:00,-54
2023-12-11 02:17:35.064275590+00:00,-58
2023-12-11 02:17:35.072149606+00:00,-80
2023-12-11 02:17:35.080023622+00:00,105
2023-12-11 02:17:35.087897637+00:00,571
2023-12-11 02:17:35.095771653+00:00,703
2023-12-11 02:17:35.103645669+00:00,107
2023-12-11 02:17:35.111519685+00:00,-121
2023-12-11 02:17:35.119393700+00:00,-144
2023-12-11 02:17:35.127267716+00:00,-77
2023-12-11 02:17:35.135141732+00:00,-66
2023-12-11 02:17:35.143015748+00:00,-52
2023-12-11 02:17:35.150889763+00:00,-56
2023-12-11 02:17:35.158763779+00:00,-48
2023-12-11 02:17:35.166637795+00:00,-47
2023-12-11 02:17:35.174511811+00:00,-54
2023-12-11 02:17:35.182385826+00:00,-41
2023-12-11 02:17:35.190259842+00:00,-43
2023-12-11 02:17:35.198133858+00:00,-39
2023-12-11 02:17:35.206007874+00:00,-29
2023-12-11 02:17:35.213881889+00:00,-36
2023-12-11 02:17:35.221755905+00:00,-24
2023-12-11 02:17:35.229629921+00:00,-27
2023-12-11 02:17:35.237503937+00:00,-28
2023-12-11 02:17:35.245377952+00:00,-13
2023-12-11 02:17:35.253251968+00:00,-19
2023-12-11 02:17:35.261125984+00:00,-12
2023-12-11 02:17:35.269000+00:00,-8
2023-12-11 02:17:35.269000+00:00,-7
2023-12-11 02:17:35.276874015+00:00,5
2023-12-11 02:17:35.284748031+00:00,8
2023-12-11 02:17:35.292622047+00:00,10
2023-12-11 02:17:35.300496062+00:00,19
2023-12-11 02:17:35.308370078+00:00,21
2023-12-11 02:17:35.316244094+00:00,42
2023-12-11 02:17:35.324118110+00:00,47
2023-12-11 02:17:35.331992125+00:00,54
2023-12-11 02:17:35.339866141+00:00,75
2023-12-11 02:17:35.347740157+00:00,81
2023-12-11 02:17:35.355614173+00:00,102
2023-12-11 02:17:35.363488188+00:00,106
2023-12-11 02:17:35.371362204+00:00,111
2023-12-11 02:17:35.379236220+00:00,120
2023-12-11 02:17:35.387110236+00:00,118
2023-12-11 02:17:35.394984251+00:00,119
2023-12-11 02:17:35.402858267+00:00,108
2023-12-11 02:17:35.410732283+00:00,93
2023-12-11 02:17:35.418606299+00:00,93
2023-12-11 02:17:35.426480314+00:00,73
2023-12-11 02:17:35.434354330+00:00,62
2023-12-11 02:17:35.442228346+00:00,55
2023-12-11 02:17:35.450102362+00:00,37
2023-12-11 02:17:35.457976377+00:00,33
2023-12-11 02:17:35.465850393+00:00,23
2023-12-11 02:17:35.473724409+00:00,18
2023-12-11 02:17:35.481598425+00:00,13
2023-12-11 02:17:35.489472440+00:00,3
2023-12-11 02:17:35.497346456+00:00,14
2023-12-11 02:17:35.505220472+00:00,7
2023-12-11 02:17:35.513094488+00:00,6
2023-12-11 02:17:35.520968503+00:00,8
2023-12-11 02:17:35.528842519+00:00,5
2023-12-11 02:17:35.536716535+00:00,11
2023-12-11 02:17:35.544590551+00:00,4
2023-12-11 02:17:35.552464566+00:00,-1
2023-12-11 02:17:35.560338582+00:00,6
2023-12-11 02:17:35.568212598+00:00,-8
2023-12-11 02:17:35.576086614+00:00,-7
2023-12-11 02:17:35.583960629+00:00,-8
2023-12-11 02:17:35.591834645+00:00,-12
2023-12-11 02:17:35.599708661+00:00,-9
2023-12-11 02:17:35.607582677+00:00,-16
2023-12-11 02:17:35.615456692+00:00,-14
2023-12-11 02:17:35.623330708+00:00,-9
2023-12-11 02:17:35.631204724+00:00,-19
2023-12-11 02:17:35.639078740+00:00,-11
2023-12-11 02:17:35.646952755+00:00,-18
2023-12-11 02:17:35.654826771+00:00,-19
2023-12-11 02:17:35.662700787+00:00,-17
2023-12-11 02:17:35.670574803+00:00,-18
2023-12-11 02:17:35.678448818+00:00,-15
2023-12-11 02:17:35.686322834+00:00,-17
2023-12-11 02:17:35.694196850+00:00,-17
2023-12-11 02:17:35.702070866+00:00,-18
2023-12-11 02:17:35.709944881+00:00,-22
2023-12-11 02:17:35.717818897+00:00,-18
2023-12-11 02:17:35.725692913+00:00,-15
2023-12-11 02:17:35.733566929+00:00,-18
2023-12-11 02:17:35.741440944+00:00,-11
2023-12-11 02:17:35.749314960+00:00,-15
2023-12-11 02:17:35.757188976+00:00,-6
2023-12-11 02:17:35.765062992+00:00,0
2023-12-11 02:17:35.772937007+00:00,8
2023-12-11 02:17:35.780811023+00:00,25
2023-12-11 02:17:35.788685039+00:00,15
2023-12-11 02:17:35.796559055+00:00,12
2023-12-11 02:17:35.804433070+00:00,22
2023-12-11 02:17:35.812307086+00:00,16
2023-12-11 02:17:35.820181102+00:00,15
2023-12-11 02:17:35.828055118+00:00,5
2023-12-11 02:17:35.835929133+00:00,-1
2023-12-11 02:17:35.843803149+00:00,-10
2023-12-11 02:17:35.851677165+00:00,-19
2023-12-11 02:17:35.859551181+00:00,-18
2023-12-11 02:17:35.867425196+00:00,-28
2023-12-11 02:17:35.875299212+00:00,-64
2023-12-11 02:17:35.883173228+00:00,45
2023-12-11 02:17:35.891047244+00:00,442
2023-12-11 02:17:35.898921259+00:00,712
2023-12-11 02:17:35.906795275+00:00,261
2023-12-11 02:17:35.914669291+00:00,-79
2023-12-11 02:17:35.922543307+00:00,-87
2023-12-11 02:17:35.930417322+00:00,-49
2023-12-11 02:17:35.938291338+00:00,-29
2023-12-11 02:17:35.946165354+00:00,-30
2023-12-11 02:17:35.954039370+00:00,-29
2023-12-11 02:17:35.961913385+00:00,-25
2023-12-11 02:17:35.969787401+00:00,-27
2023-12-11 02:17:35.977661417+00:00,-21
2023-12-11 02:17:35.985535433+00:00,-19
2023-12-11 02:17:35.993409448+00:00,-23
2023-12-11 02:17:36.001283464+00:00,-14
2023-12-11 02:17:36.009157480+00:00,-16
2023-12-11 02:17:36.017031496+00:00,-17
2023-12-11 02:17:36.024905511+00:00,-13
2023-12-11 02:17:36.032779527+00:00,-12
2023-12-11 02:17:36.040653543+00:00,-7
2023-12-11 02:17:36.048527559+00:00,-4
2023-12-11 02:17:36.056401574+00:00,-8
2023-12-11 02:17:36.064275590+00:00,-1
2023-12-11 02:17:36.072149606+00:00,-2
2023-12-11 02:17:36.080023622+00:00,5
2023-12-11 02:17:36.087897637+00:00,13
2023-12-11 02:17:36.095771653+00:00,11
2023-12-11 02:17:36.103645669+00:00,20
2023-12-11 02:17:36.111519685+00:00,25
2023-12-11 02:17:36.119393700+00:00,32
2023-12-11 02:17:36.127267716+00:00,38
2023-12-11 02:17:36.135141732+00:00,44
2023-12-11 02:17:36.143015748+00:00,59
2023-12-11 02:17:36.150889763+00:00,66
2023-12-11 02:17:36.158763779+00:00,75
2023-12-11 02:17:36.166637795+00:00,94
2023-12-11 02:17:36.174511811+00:00,97
2023-12-11 02:17:36.182385826+00:00,104
2023-12-11 02:17:36.190259842+00:00,101
2023-12-11 02:17:36.198133858+00:00,102
2023-12-11 02:17:36.206007874+00:00,101
2023-12-11 02:17:36.213881889+00:00,96
2023-12-11 02:17:36.221755905+00:00,94
2023-12-11 02:17:36.229629921+00:00,83
2023-12-11 02:17:36.237503937+00:00,70
2023-12-11 02:17:36.245377952+00:00,62
2023-12-11 02:17:36.253251968+00:00,46
2023-12-11 02:17:36.261125984+00:00,35
2023-12-11 02:17:36.269000+00:00,32
2023-12-11 02:17:36.269000+00:00,17
2023-12-11 02:17:36.276874015+00:00,13
2023-12-11 02:17:36.284748031+00:00,2
2023-12-11 02:17:36.292622047+00:00,3
2023-12-11 02:17:36.300496062+00:00,7
2023-12-11 02:17:36.308370078+00:00,1
2023-12-11 02:17:36.316244094+00:00,1
2023-12-11 02:17:36.324118110+00:00,2
2023-12-11 02:17:36.331992125+00:00,-7
2023-12-11 02:17:36.339866141+00:00,-10
2023-12-11 02:17:36.347740157+00:00,-17
2023-12-11 02:17:36.355614173+00:00,-9
2023-12-11 02:17:36.363488188+00:00,-12
2023-12-11 02:17:36.371362204+00:00,-17
2023-12-11 02:17:36.379236220+00:00,-16
2023-12-11 02:17:36.387110236+00:00,-14
2023-12-11 02:17:36.394984251+00:00,-21
2023-12-11 02:17:36.402858267+00:00,-23
2023-12-11 02:17:36.410732283+00:00,-22
2023-12-11 02:17:36.418606299+00:00,-24
2023-12-11 02:17:36.426480314+00:00,-27
2023-12-11 02:17:36.434354330+00:00,-24
2023-12-11 02:17:36.442228346+00:00,-19
2023-12-11 02:17:36.450102362+00:00,-27
2023-12-11 02:17:36.457976377+00:00,-26
2023-12-11 02:17:36.465850393+00:00,-24
2023-12-11 02:17:36.473724409+00:00,-28
2023-12-11 02:17:36.481598425+00:00,-25
2023-12-11 02:17:36.489472440+00:00,-31
2023-12-11 02:17:36.497346456+00:00,-23
2023-12-11 02:17:36.505220472+00:00,-25
2023-12-11 02:17:36.513094488+00:00,-29
2023-12-11 02:17:36.520968503+00:00,-24
2023-12-11 02:17:36.528842519+00:00,-34
2023-12-11 02:17:36.536716535+00:00,-30
2023-12-11 02:17:36.544590551+00:00,-31
2023-12-11 02:17:36.552464566+00:00,-35
2023-12-11 02:17:36.560338582+00:00,-25
2023-12-11 02:17:36.568212598+00:00,-16
2023-12-11 02:17:36.576086614+00:00,-9
2023-12-11 02:17:36.583960629+00:00,-2
2023-12-11 02:17:36.591834645+00:00,-7
2023-12-11 02:17:36.599708661+00:00,-13
2023-12-11 02:17:36.607582677+00:00,-10
2023-12-11 02:17:36.615456692+00:00,-2
2023-12-11 02:17:36.623330708+00:00,8
2023-12-11 02:17:36.631204724+00:00,-10
2023-12-11 02:17:36.639078740+00:00,-15
2023-12-11 02:17:36.646952755+00:00,-33
2023-12-11 02:17:36.654826771+00:00,-44
2023-12-11 02:17:36.662700787+00:00,-40
2023-12-11 02:17:36.670574803+00:00,-46
2023-12-11 02:17:36.678448818+00:00,-79
2023-12-11 02:17:36.686322834+00:00,-43
2023-12-11 02:17:36.694196850+00:00,291
2023-12-11 02:17:36.702070866+00:00,733
2023-12-11 02:17:36.709944881+00:00,485
2023-12-11 02:17:36.717818897+00:00,-62
2023-12-11 02:17:36.725692913+00:00,-123
2023-12-11 02:17:36.733566929+00:00,-93
2023-12-11 02:17:36.741440944+00:00,-53
2023-12-11 02:17:36.749314960+00:00,-56
2023-12-11 02:17:36.757188976+00:00,-60
2023-12-11 02:17:36.765062992+00:00,-49
2023-12-11 02:17:36.772937007+00:00,-54
2023-12-11 02:17:36.780811023+00:00,-49
2023-12-11 02:17:36.788685039+00:00,-49
2023-12-11 02:17:36.796559055+00:00,-49
2023-12-11 02:17:36.804433070+00:00,-40
2023-12-11 02:17:36.812307086+00:00,-42
2023-12-11 02:17:36.820181102+00:00,-35
2023-12-11 02:17:36.828055118+00:00,-30
2023-12-11 02:17:36.835929133+00:00,-31
2023-12-11 02:17:36.843803149+00:00,-23
2023-12-11 02:17:36.851677165+00:00,-22
2023-12-11 02:17:36.859551181+00:00,-19
2023-12-11 02:17:36.867425196+00:00,-13
2023-12-11 02:17:36.875299212+00:00,-15
2023-12-11 02:17:36.883173228+00:00,-7
2023-12-11 02:17:36.891047244+00:00,-2
2023-12-11 02:17:36.898921259+00:00,-1
2023-12-11 02:17:36.906795275+00:00,6
2023-12-11 02:17:36.914669291+00:00,12
2023-12-11 02:17:36.922543307+00:00,20
2023-12-11 02:17:36.930417322+00:00,21
2023-12-11 02:17:36.938291338+00:00,29
2023-12-11 02:17:36.946165354+00:00,42
2023-12-11 02:17:36.954039370+00:00,48
2023-12-11 02:17:36.961913385+00:00,64
2023-12-11 02:17:36.969787401+00:00,77
2023-12-11 02:17:36.977661417+00:00,88
2023-12-11 02:17:36.985535433+00:00,100
2023-12-11 02:17:36.993409448+00:00,103
2023-12-11 02:17:37.001283464+00:00,108
2023-12-11 02:17:37.009157480+00:00,105
2023-12-11 02:17:37.017031496+00:00,95
2023-12-11 02:17:37.024905511+00:00,95
2023-12-11 02:17:37.032779527+00:00,88
2023-12-11 02:17:37.040653543+00:00,72
2023-12-11 02:17:37.048527559+00:00,65
2023-12-11 02:17:37.056401574+00:00,47
2023-12-11 02:17:37.064275590+00:00,40
2023-12-11 02:17:37.072149606+00:00,23
2023-12-11 02:17:37.080023622+00:00,13
2023-12-11 02:17:37.087897637+00:00,5
2023-12-11 02:17:37.095771653+00:00,-6
2023-12-11 02:17:37.103645669+00:00,-9
2023-12-11 02:17:37.111519685+00:00,-14
2023-12-11 02:17:37.119393700+00:00,-14
2023-12-11 02:17:37.127267716+00:00,-9
2023-12-11 02:17:37.135141732+00:00,-12
2023-12-11 02:17:37.143015748+00:00,-10
2023-12-11 02:17:37.150889763+00:00,-14
2023-12-11 02:17:37.158763779+00:00,-15
2023-12-11 02:17:37.166637795+00:00,-11
2023-12-11 02:17:37.174511811+00:00,-16
2023-12-11 02:17:37.182385826+00:00,-15
2023-12-11 02:17:37.190259842+00:00,-16
2023-12-11 02:17:37.198133858+00:00,-18
2023-12-11 02:17:37.206007874+00:00,-15
2023-12-11 02:17:37.213881889+00:00,-21
2023-12-11 02:17:37.221755905+00:00,-24
2023-12-11 02:17:37.229629921+00:00,-22
2023-12-11 02:17:37.237503937+00:00,-28
2023-12-11 02:17:37.245377952+00:00,-21
2023-12-11 02:17:37.253251968+00:00,-21
2023-12-11 02:17:37.261125984+00:00,-26
2023-12-11 02:17:37.269000+00:00,-24
2023-12-11 02:17:37.269000+00:00,-33
2023-12-11 02:17:37.276874015+00:00,-32
2023-12-11 02:17:37.284748031+00:00,-34
2023-12-11 02:17:37.292622047+00:00,-39
2023-12-11 02:17:37.300496062+00:00,-36
2023-12-11 02:17:37.308370078+00:00,-35
2023-12-11 02:17:37.316244094+00:00,-40
2023-12-11 02:17:37.324118110+00:00,-39
2023-12-11 02:17:37.331992125+00:00,-43
2023-12-11 02:17:37.339866141+00:00,-39
2023-12-11 02:17:37.347740157+00:00,-38
2023-12-11 02:17:37.355614173+00:00,-36
2023-12-11 02:17:37.363488188+00:00,-34
2023-12-11 02:17:37.371362204+00:00,-26
2023-12-11 02:17:37.379236220+00:00,-9
2023-12-11 02:17:37.387110236+00:00,-5
2023-12-11 02:17:37.394984251+00:00,-9
2023-12-11 02:17:37.402858267+00:00,-8
2023-12-11 02:17:37.410732283+00:00,-6
2023-12-11 02:17:37.418606299+00:00,6
2023-12-11 02:17:37.426480314+00:00,7
2023-12-11 02:17:37.434354330+00:00,-1
2023-12-11 02:17:37.442228346+00:00,-10
2023-12-11 02:17:37.450102362+00:00,-30
2023-12-11 02:17:37.457976377+00:00,-33
2023-12-11 02:17:37.465850393+00:00,-40
2023-12-11 02:17:37.473724409+00:00,-43
2023-12-11 02:17:37.481598425+00:00,-69
2023-12-11 02:17:37.489472440+00:00,-47
2023-12-11 02:17:37.497346456+00:00,285
2023-12-11 02:17:37.505220472+00:00,752
2023-12-11 02:17:37.513094488+00:00,568
2023-12-11 02:17:37.520968503+00:00,-42
2023-12-11 02:17:37.528842519+00:00,-137
2023-12-11 02:17:37.536716535+00:00,-122
2023-12-11 02:17:37.544590551+00:00,-59
2023-12-11 02:17:37.552464566+00:00,-58
2023-12-11 02:17:37.560338582+00:00,-53
2023-12-11 02:17:37.568212598+00:00,-50
2023-12-11 02:17:37.576086614+00:00,-51
2023-12-11 02:17:37.583960629+00:00,-41
2023-12-11 02:17:37.591834645+00:00,-41
2023-12-11 02:17:37.599708661+00:00,-39
2023-12-11 02:17:37.607582677+00:00,-39
2023-12-11 02:17:37.615456692+00:00,-33
2023-12-11 02:17:37.623330708+00:00,-27
2023-12-11 02:17:37.631204724+00:00,-27
2023-12-11 02:17:37.639078740+00:00,-23
2023-12-11 02:17:37.646952755+00:00,-22
2023-12-11 02:17:37.654826771+00:00,-21
2023-12-11 02:17:37.662700787+00:00,-14
2023-12-11 02:17:37.670574803+00:00,-16
2023-12-11 02:17:37.678448818+00:00,-8
2023-12-11 02:17:37.686322834+00:00,-6
2023-12-11 02:17:37.694196850+00:00,-5
2023-12-11 02:17:37.702070866+00:00,2
2023-12-11 02:17:37.709944881+00:00,5
2023-12-11 02:17:37.717818897+00:00,13
2023-12-11 02:17:37.725692913+00:00,21
2023-12-11 02:17:37.733566929+00:00,28
2023-12-11 02:17:37.741440944+00:00,38
2023-12-11 02:17:37.749314960+00:00,45
2023-12-11 02:17:37.757188976+00:00,55
2023-12-11 02:17:37.765062992+00:00,75
2023-12-11 02:17:37.772937007+00:00,83
2023-12-11 02:17:37.780811023+00:00,97
2023-12-11 02:17:37.788685039+00:00,108
2023-12-11 02:17:37.796559055+00:00,112
2023-12-11 02:17:37.804433070+00:00,120
2023-12-11 02:17:37.812307086+00:00,115
2023-12-11 02:17:37.820181102+00:00,111
2023-12-11 02:17:37.828055118+00:00,107
2023-12-11 02:17:37.835929133+00:00,90
2023-12-11 02:17:37.843803149+00:00,87
2023-12-11 02:17:37.851677165+00:00,67
2023-12-11 02:17:37.859551181+00:00,55
2023-12-11 02:17:37.867425196+00:00,46
2023-12-11 02:17:37.875299212+00:00,29
2023-12-11 02:17:37.883173228+00:00,28
2023-12-11 02:17:37.891047244+00:00,14
2023-12-11 02:17:37.898921259+00:00,9
2023-12-11 02:17:37.906795275+00:00,13
2023-12-11 02:17:37.914669291+00:00,7
2023-12-11 02:17:37.922543307+00:00,5
2023-12-11 02:17:37.930417322+00:00,2
2023-12-11 02:17:37.938291338+00:00,-1
2023-12-11 02:17:37.946165354+00:00,5
2023-12-11 02:17:37.954039370+00:00,2
2023-12-11 02:17:37.961913385+00:00,4
2023-12-11 02:17:37.969787401+00:00,-3
2023-12-11 02:17:37.977661417+00:00,-10
2023-12-11 02:17:37.985535433+00:00,-7
2023-12-11 02:17:37.993409448+00:00,-13
2023-12-11 02:17:38.001283464+00:00,-12
2023-12-11 02:17:38.009157480+00:00,-9
2023-12-11 02:17:38.017031496+00:00,-10
2023-12-11 02:17:38.024905511+00:00,-11
2023-12-11 02:17:38.032779527+00:00,-12
2023-12-11 02:17:38.040653543+00:00,-8
2023-12-11 02:17:38.048527559+00:00,-9
2023-12-11 02:17:38.056401574+00:00,-11
2023-12-11 02:17:38.064275590+00:00,-7
2023-12-11 02:17:38.072149606+00:00,-12
2023-12-11 02:17:38.080023622+00:00,-10
2023-12-11 02:17:38.087897637+00:00,-10
2023-12-11 02:17:38.095771653+00:00,-18
2023-12-11 02:17:38.103645669+00:00,-12
2023-12-11 02:17:38.111519685+00:00,-14
2023-12-11 02:17:38.119393700+00:00,-13
2023-12-11 02:17:38.127267716+00:00,-13
2023-12-11 02:17:38.135141732+00:00,-14
2023-12-11 02:17:38.143015748+00:00,-9
2023-12-11 02:17:38.150889763+00:00,-7
2023-12-11 02:17:38.158763779+00:00,-10
2023-12-11 02:17:38.166637795+00:00,-6
2023-12-11 02:17:38.174511811+00:00,-11
2023-12-11 02:17:38.182385826+00:00,-1
2023-12-11 02:17:38.190259842+00:00,14
2023-12-11 02:17:38.198133858+00:00,22
2023-12-11 02:17:38.206007874+00:00,28
2023-12-11 02:17:38.213881889+00:00,18
2023-12-11 02:17:38.221755905+00:00,19
2023-12-11 02:17:38.229629921+00:00,26
2023-12-11 02:17:38.237503937+00:00,27
2023-12-11 02:17:38.245377952+00:00,26
2023-12-11 02:17:38.253251968+00:00,12
2023-12-11 02:17:38.261125984+00:00,0
2023-12-11 02:17:38.269000+00:00,-6
2023-12-11 02:17:38.269000+00:00,-15
2023-12-11 02:17:38.276874015+00:00,-15
2023-12-11 02:17:38.284748031+00:00,-40
2023-12-11 02:17:38.292622047+00:00,-44
2023-12-11 02:17:38.300496062+00:00,205
2023-12-11 02:17:38.308370078+00:00,649
2023-12-11 02:17:38.316244094+00:00,610
2023-12-11 02:17:38.324118110+00:00,45
2023-12-11 02:17:38.331992125+00:00,-95
2023-12-11 02:17:38.339866141+00:00,-89
2023-12-11 02:17:38.347740157+00:00,-36
2023-12-11 02:17:38.355614173+00:00,-23
2023-12-11 02:17:38.363488188+00:00,-23
2023-12-11 02:17:38.371362204+00:00,-25
2023-12-11 02:17:38.379236220+00:00,-21
2023-12-11 02:17:38.387110236+00:00,-21
2023-12-11 02:17:38.394984251+00:00,-17
2023-12-11 02:17:38.402858267+00:00,-12
2023-12-11 02:17:38.410732283+00:00,-14
2023-12-11 02:17:38.418606299+00:00,-9
2023-12-11 02:17:38.426480314+00:00,-8
2023-12-11 02:17:38.434354330+00:00,-8
2023-12-11 02:17:38.442228346+00:00,-1
2023-12-11 02:17:38.450102362+00:00,-3
2023-12-11 02:17:38.457976377+00:00,5
2023-12-11 02:17:38.465850393+00:00,9
2023-12-11 02:17:38.473724409+00:00,9
2023-12-11 02:17:38.481598425+00:00,18
2023-12-11 02:17:38.489472440+00:00,17
2023-12-11 02:17:38.497346456+00:00,27
2023-12-11 02:17:38.505220472+00:00,33
2023-12-11 02:17:38.513094488+00:00,34
2023-12-11 02:17:38.520968503+00:00,43
2023-12-11 02:17:38.528842519+00:00,48
2023-12-11 02:17:38.536716535+00:00,52
2023-12-11 02:17:38.544590551+00:00,63
2023-12-11 02:17:38.552464566+00:00,68
2023-12-11 02:17:38.560338582+00:00,86
2023-12-11 02:17:38.568212598+00:00,97
2023-12-11 02:17:38.576086614+00:00,106
2023-12-11 02:17:38.583960629+00:00,120
2023-12-11 02:17:38.591834645+00:00,123
2023-12-11 02:17:38.599708661+00:00,128
2023-12-11 02:17:38.607582677+00:00,135
2023-12-11 02:17:38.615456692+00:00,129
2023-12-11 02:17:38.623330708+00:00,126
2023-12-11 02:17:38.631204724+00:00,119
2023-12-11 02:17:38.639078740+00:00,116
2023-12-11 02:17:38.646952755+00:00,109
2023-12-11 02:17:38.654826771+00:00,89
2023-12-11 02:17:38.662700787+00:00,85
2023-12-11 02:17:38.670574803+00:00,71
2023-12-11 02:17:38.678448818+00:00,59
2023-12-11 02:17:38.686322834+00:00,53
2023-12-11 02:17:38.694196850+00:00,41
2023-12-11 02:17:38.702070866+00:00,37
2023-12-11 02:17:38.709944881+00:00,39
2023-12-11 02:17:38.717818897+00:00,33
2023-12-11 02:17:38.725692913+00:00,39
2023-12-11 02:17:38.733566929+00:00,31
2023-12-11 02:17:38.741440944+00:00,31
2023-12-11 02:17:38.749314960+00:00,32
2023-12-11 02:17:38.757188976+00:00,27
2023-12-11 02:17:38.765062992+00:00,30
2023-12-11 02:17:38.772937007+00:00,27
2023-12-11 02:17:38.780811023+00:00,28
2023-12-11 02:17:38.788685039+00:00,28
2023-12-11 02:17:38.796559055+00:00,19
2023-12-11 02:17:38.804433070+00:00,20
2023-12-11 02:17:38.812307086+00:00,15
2023-12-11 02:17:38.820181102+00:00,9
2023-12-11 02:17:38.828055118+00:00,12
2023-12-11 02:17:38.835929133+00:00,14
2023-12-11 02:17:38.843803149+00:00,17
2023-12-11 02:17:38.851677165+00:00,13
2023-12-11 02:17:38.859551181+00:00,13
2023-12-11 02:17:38.867425196+00:00,15
2023-12-11 02:17:38.875299212+00:00,8
2023-12-11 02:17:38.883173228+00:00,7
2023-12-11 02:17:38.891047244+00:00,11
2023-12-11 02:17:38.898921259+00:00,8
2023-12-11 02:17:38.906795275+00:00,8
2023-12-11 02:17:38.914669291+00:00,7
2023-12-11 02:17:38.922543307+00:00,11
2023-12-11 02:17:38.930417322+00:00,12
2023-12-11 02:17:38.938291338+00:00,4
2023-12-11 02:17:38.946165354+00:00,13
2023-12-11 02:17:38.954039370+00:00,8
2023-12-11 02:17:38.961913385+00:00,10
2023-12-11 02:17:38.969787401+00:00,6
2023-12-11 02:17:38.977661417+00:00,11
2023-12-11 02:17:38.985535433+00:00,29
2023-12-11 02:17:38.993409448+00:00,34
2023-12-11 02:17:39.001283464+00:00,43
2023-12-11 02:17:39.009157480+00:00,51
2023-12-11 02:17:39.017031496+00:00,42
2023-12-11 02:17:39.024905511+00:00,48
2023-12-11 02:17:39.032779527+00:00,53
2023-12-11 02:17:39.040653543+00:00,47
2023-12-11 02:17:39.048527559+00:00,36
2023-12-11 02:17:39.056401574+00:00,25
2023-12-11 02:17:39.064275590+00:00,15
2023-12-11 02:17:39.072149606+00:00,6
2023-12-11 02:17:39.080023622+00:00,1
2023-12-11 02:17:39.087897637+00:00,0
2023-12-11 02:17:39.095771653+00:00,-38
2023-12-11 02:17:39.103645669+00:00,41
2023-12-11 02:17:39.111519685+00:00,416
2023-12-11 02:17:39.119393700+00:00,744
2023-12-11 02:17:39.127267716+00:00,356
2023-12-11 02:17:39.135141732+00:00,-44
2023-12-11 02:17:39.143015748+00:00,-66
2023-12-11 02:17:39.150889763+00:00,-18
2023-12-11 02:17:39.158763779+00:00,-11
2023-12-11 02:17:39.166637795+00:00,-10
2023-12-11 02:17:39.174511811+00:00,-14
2023-12-11 02:17:39.182385826+00:00,-14
2023-12-11 02:17:39.190259842+00:00,-9
2023-12-11 02:17:39.198133858+00:00,-11
2023-12-11 02:17:39.206007874+00:00,-7
2023-12-11 02:17:39.213881889+00:00,-4
2023-12-11 02:17:39.221755905+00:00,-5
2023-12-11 02:17:39.229629921+00:00,4
2023-12-11 02:17:39.237503937+00:00,-3
2023-12-11 02:17:39.245377952+00:00,6
2023-12-11 02:17:39.253251968+00:00,10
2023-12-11 02:17:39.261125984+00:00,7
2023-12-11 02:17:39.269000+00:00,12
2023-12-11 02:17:39.269000+00:00,16
2023-12-11 02:17:39.276874015+00:00,17
2023-12-11 02:17:39.284748031+00:00,20
2023-12-11 02:17:39.292622047+00:00,15
2023-12-11 02:17:39.300496062+00:00,28
2023-12-11 02:17:39.308370078+00:00,30
2023-12-11 02:17:39.316244094+00:00,34
2023-12-11 02:17:39.324118110+00:00,43
2023-12-11 02:17:39.331992125+00:00,48
2023-12-11 02:17:39.339866141+00:00,60
2023-12-11 02:17:39.347740157+00:00,63
2023-12-11 02:17:39.355614173+00:00,73
2023-12-11 02:17:39.363488188+00:00,89
2023-12-11 02:17:39.371362204+00:00,92
2023-12-11 02:17:39.379236220+00:00,109
2023-12-11 02:17:39.387110236+00:00,121
2023-12-11 02:17:39.394984251+00:00,124
2023-12-11 02:17:39.402858267+00:00,135
2023-12-11 02:17:39.410732283+00:00,130
2023-12-11 02:17:39.418606299+00:00,132
2023-12-11 02:17:39.426480314+00:00,130
2023-12-11 02:17:39.434354330+00:00,124
2023-12-11 02:17:39.442228346+00:00,115
2023-12-11 02:17:39.450102362+00:00,103
2023-12-11 02:17:39.457976377+00:00,90
2023-12-11 02:17:39.465850393+00:00,79
2023-12-11 02:17:39.473724409+00:00,63
2023-12-11 02:17:39.481598425+00:00,54
2023-12-11 02:17:39.489472440+00:00,39
2023-12-11 02:17:39.497346456+00:00,32
2023-12-11 02:17:39.505220472+00:00,30
2023-12-11 02:17:39.513094488+00:00,25
2023-12-11 02:17:39.520968503+00:00,32
2023-12-11 02:17:39.528842519+00:00,28
2023-12-11 02:17:39.536716535+00:00,21
2023-12-11 02:17:39.544590551+00:00,24
2023-12-11 02:17:39.552464566+00:00,24
2023-12-11 02:17:39.560338582+00:00,23
2023-12-11 02:17:39.568212598+00:00,20
2023-12-11 02:17:39.576086614+00:00,10
2023-12-11 02:17:39.583960629+00:00,18
2023-12-11 02:17:39.591834645+00:00,15
2023-12-11 02:17:39.599708661+00:00,10
2023-12-11 02:17:39.607582677+00:00,10
2023-12-11 02:17:39.615456692+00:00,8
2023-12-11 02:17:39.623330708+00:00,11
2023-12-11 02:17:39.631204724+00:00,5
2023-12-11 02:17:39.639078740+00:00,2
2023-12-11 02:17:39.646952755+00:00,-1
2023-12-11 02:17:39.654826771+00:00,-5
2023-12-11 02:17:39.662700787+00:00,2
2023-12-11 02:17:39.670574803+00:00,-3
2023-12-11 02:17:39.678448818+00:00,-4
2023-12-11 02:17:39.686322834+00:00,4
2023-12-11 02:17:39.694196850+00:00,0
2023-12-11 02:17:39.702070866+00:00,0
2023-12-11 02:17:39.709944881+00:00,-2
2023-12-11 02:17:39.717818897+00:00,-5
2023-12-11 02:17:39.725692913+00:00,2
2023-12-11 02:17:39.733566929+00:00,0
2023-12-11 02:17:39.741440944+00:00,-1
2023-12-11 02:17:39.749314960+00:00,2
2023-12-11 02:17:39.757188976+00:00,-3
2023-12-11 02:17:39.765062992+00:00,-1
2023-12-11 02:17:39.772937007+00:00,-2
2023-12-11 02:17:39.780811023+00:00,4
2023-12-11 02:17:39.788685039+00:00,19
2023-12-11 02:17:39.796559055+00:00,25
2023-12-11 02:17:39.804433070+00:00,33
2023-12-11 02:17:39.812307086+00:00,25
2023-12-11 02:17:39.820181102+00:00,25
2023-12-11 02:17:39.828055118+00:00,35
2023-12-11 02:17:39.835929133+00:00,33
2023-12-11 02:17:39.843803149+00:00,26
2023-12-11 02:17:39.851677165+00:00,12
2023-12-11 02:17:39.859551181+00:00,7
2023-12-11 02:17:39.867425196+00:00,-5
2023-12-11 02:17:39.875299212+00:00,-16
2023-12-11 02:17:39.883173228+00:00,-16
2023-12-11 02:17:39.891047244+00:00,-27
2023-12-11 02:17:39.898921259+00:00,-59
2023-12-11 02:17:39.906795275+00:00,114
2023-12-11 02:17:39.914669291+00:00,593
2023-12-11 02:17:39.922543307+00:00,771
2023-12-11 02:17:39.930417322+00:00,152
2023-12-11 02:17:39.938291338+00:00,-103
2023-12-11 02:17:39.946165354+00:00,-112
2023-12-11 02:17:39.954039370+00:00,-55
2023-12-11 02:17:39.961913385+00:00,-37
2023-12-11 02:17:39.969787401+00:00,-36
2023-12-11 02:17:39.977661417+00:00,-39
2023-12-11 02:17:39.985535433+00:00,-31
2023-12-11 02:17:39.993409448+00:00,-26
2023-12-11 02:17:40.001283464+00:00,-25
2023-12-11 02:17:40.009157480+00:00,-15
2023-12-11 02:17:40.017031496+00:00,-18
2023-12-11 02:17:40.024905511+00:00,-10
2023-12-11 02:17:40.032779527+00:00,-10
2023-12-11 02:17:40.040653543+00:00,-10
2023-12-11 02:17:40.048527559+00:00,-3
2023-12-11 02:17:40.056401574+00:00,-4
2023-12-11 02:17:40.064275590+00:00,0
2023-12-11 02:17:40.072149606+00:00,7
2023-12-11 02:17:40.080023622+00:00,6
2023-12-11 02:17:40.087897637+00:00,4
2023-12-11 02:17:40.095771653+00:00,8
2023-12-11 02:17:40.103645669+00:00,11
2023-12-11 02:17:40.111519685+00:00,18
2023-12-11 02:17:40.119393700+00:00,21
2023-12-11 02:17:40.127267716+00:00,35
2023-12-11 02:17:40.135141732+00:00,38
2023-12-11 02:17:40.143015748+00:00,44
2023-12-11 02:17:40.150889763+00:00,56
2023-12-11 02:17:40.158763779+00:00,61
2023-12-11 02:17:40.166637795+00:00,78
2023-12-11 02:17:40.174511811+00:00,89
2023-12-11 02:17:40.182385826+00:00,99
2023-12-11 02:17:40.190259842+00:00,120
2023-12-11 02:17:40.198133858+00:00,122
2023-12-11 02:17:40.206007874+00:00,130
2023-12-11 02:17:40.213881889+00:00,134
2023-12-11 02:17:40.221755905+00:00,132
2023-12-11 02:17:40.229629921+00:00,133
2023-12-11 02:17:40.237503937+00:00,124
2023-12-11 02:17:40.245377952+00:00,117
2023-12-11 02:17:40.253251968+00:00,107
2023-12-11 02:17:40.261125984+00:00,90
2023-12-11 02:17:40.269000+00:00,82
2023-12-11 02:17:40.269000+00:00,66
2023-12-11 02:17:40.276874015+00:00,54
2023-12-11 02:17:40.284748031+00:00,52
2023-12-11 02:17:40.292622047+00:00,40
2023-12-11 02:17:40.300496062+00:00,37
2023-12-11 02:17:40.308370078+00:00,31
2023-12-11 02:17:40.316244094+00:00,28
2023-12-11 02:17:40.324118110+00:00,26
2023-12-11 02:17:40.331992125+00:00,18
2023-12-11 02:17:40.339866141+00:00,20
2023-12-11 02:17:40.347740157+00:00,19
2023-12-11 02:17:40.355614173+00:00,15
2023-12-11 02:17:40.363488188+00:00,19
2023-12-11 02:17:40.371362204+00:00,15
2023-12-11 02:17:40.379236220+00:00,15
2023-12-11 02:17:40.387110236+00:00,9
2023-12-11 02:17:40.394984251+00:00,7
2023-12-11 02:17:40.402858267+00:00,10
2023-12-11 02:17:40.410732283+00:00,4
2023-12-11 02:17:40.418606299+00:00,3
2023-12-11 02:17:40.426480314+00:00,2
2023-12-11 02:17:40.434354330+00:00,-2
2023-12-11 02:17:40.442228346+00:00,4
2023-12-11 02:17:40.450102362+00:00,0
2023-12-11 02:17:40.457976377+00:00,-5
2023-12-11 02:17:40.465850393+00:00,-6
2023-12-11 02:17:40.473724409+00:00,-9
2023-12-11 02:17:40.481598425+00:00,-8
2023-12-11 02:17:40.489472440+00:00,-10
2023-12-11 02:17:40.497346456+00:00,-9
2023-12-11 02:17:40.505220472+00:00,-4
2023-12-11 02:17:40.513094488+00:00,-4
2023-12-11 02:17:40.520968503+00:00,4
2023-12-11 02:17:40.528842519+00:00,-4
2023-12-11 02:17:40.536716535+00:00,-4
2023-12-11 02:17:40.544590551+00:00,2
2023-12-11 02:17:40.552464566+00:00,-2
2023-12-11 02:17:40.560338582+00:00,-1
2023-12-11 02:17:40.568212598+00:00,-4
2023-12-11 02:17:40.576086614+00:00,-6
2023-12-11 02:17:40.583960629+00:00,16
2023-12-11 02:17:40.591834645+00:00,21
2023-12-11 02:17:40.599708661+00:00,29
2023-12-11 02:17:40.607582677+00:00,33
2023-12-11 02:17:40.615456692+00:00,17
2023-12-11 02:17:40.623330708+00:00,30
2023-12-11 02:17:40.631204724+00:00,33
2023-12-11 02:17:40.639078740+00:00,28
2023-12-11 02:17:40.646952755+00:00,19
2023-12-11 02:17:40.654826771+00:00,5
2023-12-11 02:17:40.662700787+00:00,1
2023-12-11 02:17:40.670574803+00:00,-9
2023-12-11 02:17:40.678448818+00:00,-16
2023-12-11 02:17:40.686322834+00:00,-14
2023-12-11 02:17:40.694196850+00:00,-54
2023-12-11 02:17:40.702070866+00:00,-5
2023-12-11 02:17:40.709944881+00:00,383
2023-12-11 02:17:40.717818897+00:00,817
2023-12-11 02:17:40.725692913+00:00,486
2023-12-11 02:17:40.733566929+00:00,-51
2023-12-11 02:17:40.741440944+00:00,-113
2023-12-11 02:17:40.749314960+00:00,-84
2023-12-11 02:17:40.757188976+00:00,-34
2023-12-11 02:17:40.765062992+00:00,-21
2023-12-11 02:17:40.772937007+00:00,-24
2023-12-11 02:17:40.780811023+00:00,-17
2023-12-11 02:17:40.788685039+00:00,-13
2023-12-11 02:17:40.796559055+00:00,-18
2023-12-11 02:17:40.804433070+00:00,-12
2023-12-11 02:17:40.812307086+00:00,-6
2023-12-11 02:17:40.820181102+00:00,-7
2023-12-11 02:17:40.828055118+00:00,-1
2023-12-11 02:17:40.835929133+00:00,-3
2023-12-11 02:17:40.843803149+00:00,2
2023-12-11 02:17:40.851677165+00:00,7
2023-12-11 02:17:40.859551181+00:00,4
2023-12-11 02:17:40.867425196+00:00,12
2023-12-11 02:17:40.875299212+00:00,11
2023-12-11 02:17:40.883173228+00:00,9
2023-12-11 02:17:40.891047244+00:00,16
2023-12-11 02:17:40.898921259+00:00,19
2023-12-11 02:17:40.906795275+00:00,22
2023-12-11 02:17:40.914669291+00:00,25
2023-12-11 02:17:40.922543307+00:00,29
2023-12-11 02:17:40.930417322+00:00,41
2023-12-11 02:17:40.938291338+00:00,47
2023-12-11 02:17:40.946165354+00:00,57
2023-12-11 02:17:40.954039370+00:00,63
2023-12-11 02:17:40.961913385+00:00,70
2023-12-11 02:17:40.969787401+00:00,86
2023-12-11 02:17:40.977661417+00:00,96
2023-12-11 02:17:40.985535433+00:00,112
2023-12-11 02:17:40.993409448+00:00,129
2023-12-11 02:17:41.001283464+00:00,130
2023-12-11 02:17:41.009157480+00:00,146
2023-12-11 02:17:41.017031496+00:00,143
2023-12-11 02:17:41.024905511+00:00,140
2023-12-11 02:17:41.032779527+00:00,134
2023-12-11 02:17:41.040653543+00:00,127
2023-12-11 02:17:41.048527559+00:00,123
2023-12-11 02:17:41.056401574+00:00,106
2023-12-11 02:17:41.064275590+00:00,93
2023-12-11 02:17:41.072149606+00:00,83
2023-12-11 02:17:41.080023622+00:00,65
2023-12-11 02:17:41.087897637+00:00,57
2023-12-11 02:17:41.095771653+00:00,45
2023-12-11 02:17:41.103645669+00:00,40
2023-12-11 02:17:41.111519685+00:00,32
2023-12-11 02:17:41.119393700+00:00,27
2023-12-11 02:17:41.127267716+00:00,27
2023-12-11 02:17:41.135141732+00:00,26
2023-12-11 02:17:41.143015748+00:00,25
2023-12-11 02:17:41.150889763+00:00,26
2023-12-11 02:17:41.158763779+00:00,22
2023-12-11 02:17:41.166637795+00:00,20
2023-12-11 02:17:41.174511811+00:00,22
2023-12-11 02:17:41.182385826+00:00,20
2023-12-11 02:17:41.190259842+00:00,20
2023-12-11 02:17:41.198133858+00:00,14
2023-12-11 02:17:41.206007874+00:00,19
2023-12-11 02:17:41.213881889+00:00,16
2023-12-11 02:17:41.221755905+00:00,10
2023-12-11 02:17:41.229629921+00:00,16
2023-12-11 02:17:41.237503937+00:00,10
2023-12-11 02:17:41.245377952+00:00,12
2023-12-11 02:17:41.253251968+00:00,11
2023-12-11 02:17:41.261125984+00:00,8
2023-12-11 02:17:41.269000+00:00,14
2023-12-11 02:17:41.269000+00:00,9
2023-12-11 02:17:41.276874015+00:00,11
2023-12-11 02:17:41.284748031+00:00,12
2023-12-11 02:17:41.292622047+00:00,9
2023-12-11 02:17:41.300496062+00:00,11
2023-12-11 02:17:41.308370078+00:00,10
2023-12-11 02:17:41.316244094+00:00,5
2023-12-11 02:17:41.324118110+00:00,3
2023-12-11 02:17:41.331992125+00:00,2
2023-12-11 02:17:41.339866141+00:00,5
2023-12-11 02:17:41.347740157+00:00,8
2023-12-11 02:17:41.355614173+00:00,3
2023-12-11 02:17:41.363488188+00:00,8
2023-12-11 02:17:41.371362204+00:00,7
2023-12-11 02:17:41.379236220+00:00,21
2023-12-11 02:17:41.387110236+00:00,32
2023-12-11 02:17:41.394984251+00:00,38
2023-12-11 02:17:41.402858267+00:00,45
2023-12-11 02:17:41.410732283+00:00,34
2023-12-11 02:17:41.418606299+00:00,37
2023-12-11 02:17:41.426480314+00:00,51
2023-12-11 02:17:41.434354330+00:00,46
2023-12-11 02:17:41.442228346+00:00,40
2023-12-11 02:17:41.450102362+00:00,32
2023-12-11 02:17:41.457976377+00:00,19
2023-12-11 02:17:41.465850393+00:00,10
2023-12-11 02:17:41.473724409+00:00,9
2023-12-11 02:17:41.481598425+00:00,9
2023-12-11 02:17:41.489472440+00:00,-25
2023-12-11 02:17:41.497346456+00:00,-10
2023-12-11 02:17:41.505220472+00:00,306
2023-12-11 02:17:41.513094488+00:00,742
2023-12-11 02:17:41.520968503+00:00,560
2023-12-11 02:17:41.528842519+00:00,17
2023-12-11 02:17:41.536716535+00:00,-79
2023-12-11 02:17:41.544590551+00:00,-69
2023-12-11 02:17:41.552464566+00:00,-14
2023-12-11 02:17:41.560338582+00:00,-7
2023-12-11 02:17:41.568212598+00:00,-3
2023-12-11 02:17:41.576086614+00:00,-4
2023-12-11 02:17:41.583960629+00:00,-1
2023-12-11 02:17:41.591834645+00:00,3
2023-12-11 02:17:41.599708661+00:00,8
2023-12-11 02:17:41.607582677+00:00,11
2023-12-11 02:17:41.615456692+00:00,12
2023-12-11 02:17:41.623330708+00:00,22
2023-12-11 02:17:41.631204724+00:00,23
2023-12-11 02:17:41.639078740+00:00,21
2023-12-11 02:17:41.646952755+00:00,29
2023-12-11 02:17:41.654826771+00:00,29
2023-12-11 02:17:41.662700787+00:00,34
2023-12-11 02:17:41.670574803+00:00,37
2023-12-11 02:17:41.678448818+00:00,32
2023-12-11 02:17:41.686322834+00:00,42
2023-12-11 02:17:41.694196850+00:00,41
2023-12-11 02:17:41.702070866+00:00,46
2023-12-11 02:17:41.709944881+00:00,55
2023-12-11 02:17:41.717818897+00:00,53
2023-12-11 02:17:41.725692913+00:00,61
2023-12-11 02:17:41.733566929+00:00,60
2023-12-11 02:17:41.741440944+00:00,74
2023-12-11 02:17:41.749314960+00:00,92
2023-12-11 02:17:41.757188976+00:00,103
2023-12-11 02:17:41.765062992+00:00,118
2023-12-11 02:17:41.772937007+00:00,121
2023-12-11 02:17:41.780811023+00:00,128
2023-12-11 02:17:41.788685039+00:00,143
2023-12-11 02:17:41.796559055+00:00,146
2023-12-11 02:17:41.804433070+00:00,154
2023-12-11 02:17:41.812307086+00:00,157
2023-12-11 02:17:41.820181102+00:00,158
2023-12-11 02:17:41.828055118+00:00,154
2023-12-11 02:17:41.835929133+00:00,144
2023-12-11 02:17:41.843803149+00:00,139
2023-12-11 02:17:41.851677165+00:00,121
2023-12-11 02:17:41.859551181+00:00,104
2023-12-11 02:17:41.867425196+00:00,100
2023-12-11 02:17:41.875299212+00:00,86
2023-12-11 02:17:41.883173228+00:00,77
2023-12-11 02:17:41.891047244+00:00,69
2023-12-11 02:17:41.898921259+00:00,55
2023-12-11 02:17:41.906795275+00:00,53
2023-12-11 02:17:41.914669291+00:00,46
2023-12-11 02:17:41.922543307+00:00,46
2023-12-11 02:17:41.930417322+00:00,54
2023-12-11 02:17:41.938291338+00:00,46
2023-12-11 02:17:41.946165354+00:00,47
2023-12-11 02:17:41.954039370+00:00,48
2023-12-11 02:17:41.961913385+00:00,42
2023-12-11 02:17:41.969787401+00:00,42
2023-12-11 02:17:41.977661417+00:00,35
2023-12-11 02:17:41.985535433+00:00,37
2023-12-11 02:17:41.993409448+00:00,43
2023-12-11 02:17:42.001283464+00:00,33
2023-12-11 02:17:42.009157480+00:00,37
2023-12-11 02:17:42.017031496+00:00,28
2023-12-11 02:17:42.024905511+00:00,31
2023-12-11 02:17:42.032779527+00:00,28
2023-12-11 02:17:42.040653543+00:00,26
2023-12-11 02:17:42.048527559+00:00,29
2023-12-11 02:17:42.056401574+00:00,27
2023-12-11 02:17:42.064275590+00:00,24
2023-12-11 02:17:42.072149606+00:00,31
2023-12-11 02:17:42.080023622+00:00,27
2023-12-11 02:17:42.087897637+00:00,28
2023-12-11 02:17:42.095771653+00:00,25
2023-12-11 02:17:42.103645669+00:00,25
2023-12-11 02:17:42.111519685+00:00,29
2023-12-11 02:17:42.119393700+00:00,24
2023-12-11 02:17:42.127267716+00:00,30
2023-12-11 02:17:42.135141732+00:00,31
2023-12-11 02:17:42.143015748+00:00,26
2023-12-11 02:17:42.150889763+00:00,35
2023-12-11 02:17:42.158763779+00:00,27
2023-12-11 02:17:42.166637795+00:00,27
2023-12-11 02:17:42.174511811+00:00,39
2023-12-11 02:17:42.182385826+00:00,42
2023-12-11 02:17:42.190259842+00:00,57
2023-12-11 02:17:42.198133858+00:00,63
2023-12-11 02:17:42.206007874+00:00,59
2023-12-11 02:17:42.213881889+00:00,54
2023-12-11 02:17:42.221755905+00:00,59
2023-12-11 02:17:42.229629921+00:00,62
2023-12-11 02:17:42.237503937+00:00,55
2023-12-11 02:17:42.245377952+00:00,40
2023-12-11 02:17:42.253251968+00:00,38
2023-12-11 02:17:42.261125984+00:00,23
2023-12-11 02:17:42.269000+00:00,18
2023-12-11 02:17:42.269000+00:00,16
2023-12-11 02:17:42.276874015+00:00,3
2023-12-11 02:17:42.284748031+00:00,-29
2023-12-11 02:17:42.292622047+00:00,85
2023-12-11 02:17:42.300496062+00:00,503
2023-12-11 02:17:42.308370078+00:00,747
2023-12-11 02:17:42.316244094+00:00,263
2023-12-11 02:17:42.324118110+00:00,-42
2023-12-11 02:17:42.331992125+00:00,-47
2023-12-11 02:17:42.339866141+00:00,-4
2023-12-11 02:17:42.347740157+00:00,5
2023-12-11 02:17:42.355614173+00:00,-1
2023-12-11 02:17:42.363488188+00:00,7
2023-12-11 02:17:42.371362204+00:00,2
2023-12-11 02:17:42.379236220+00:00,4
2023-12-11 02:17:42.387110236+00:00,8
2023-12-11 02:17:42.394984251+00:00,7
2023-12-11 02:17:42.402858267+00:00,10
2023-12-11 02:17:42.410732283+00:00,15
2023-12-11 02:17:42.418606299+00:00,16
2023-12-11 02:17:42.426480314+00:00,22
2023-12-11 02:17:42.434354330+00:00,18
2023-12-11 02:17:42.442228346+00:00,25
2023-12-11 02:17:42.450102362+00:00,28
2023-12-11 02:17:42.457976377+00:00,24
2023-12-11 02:17:42.465850393+00:00,30
2023-12-11 02:17:42.473724409+00:00,33
2023-12-11 02:17:42.481598425+00:00,36
2023-12-11 02:17:42.489472440+00:00,41
2023-12-11 02:17:42.497346456+00:00,35
2023-12-11 02:17:42.505220472+00:00,49
2023-12-11 02:17:42.513094488+00:00,49
2023-12-11 02:17:42.520968503+00:00,51
2023-12-11 02:17:42.528842519+00:00,62
2023-12-11 02:17:42.536716535+00:00,66
2023-12-11 02:17:42.544590551+00:00,75
2023-12-11 02:17:42.552464566+00:00,80
2023-12-11 02:17:42.560338582+00:00,89
2023-12-11 02:17:42.568212598+00:00,106
2023-12-11 02:17:42.576086614+00:00,108
2023-12-11 02:17:42.583960629+00:00,123
2023-12-11 02:17:42.591834645+00:00,129
2023-12-11 02:17:42.599708661+00:00,127
2023-12-11 02:17:42.607582677+00:00,132
2023-12-11 02:17:42.615456692+00:00,127
2023-12-11 02:17:42.623330708+00:00,121
2023-12-11 02:17:42.631204724+00:00,116
2023-12-11 02:17:42.639078740+00:00,102
2023-12-11 02:17:42.646952755+00:00,92
2023-12-11 02:17:42.654826771+00:00,76
2023-12-11 02:17:42.662700787+00:00,67
2023-12-11 02:17:42.670574803+00:00,61
2023-12-11 02:17:42.678448818+00:00,46
2023-12-11 02:17:42.686322834+00:00,39
2023-12-11 02:17:42.694196850+00:00,34
2023-12-11 02:17:42.702070866+00:00,27
2023-12-11 02:17:42.709944881+00:00,28
2023-12-11 02:17:42.717818897+00:00,25
2023-12-11 02:17:42.725692913+00:00,28
2023-12-11 02:17:42.733566929+00:00,28
2023-12-11 02:17:42.741440944+00:00,24
2023-12-11 02:17:42.749314960+00:00,30
2023-12-11 02:17:42.757188976+00:00,25
2023-12-11 02:17:42.765062992+00:00,27
2023-12-11 02:17:42.772937007+00:00,21
2023-12-11 02:17:42.780811023+00:00,19
2023-12-11 02:17:42.788685039+00:00,25
2023-12-11 02:17:42.796559055+00:00,14
2023-12-11 02:17:42.804433070+00:00,21
2023-12-11 02:17:42.812307086+00:00,16
2023-12-11 02:17:42.820181102+00:00,10
2023-12-11 02:17:42.828055118+00:00,15
2023-12-11 02:17:42.835929133+00:00,7
2023-12-11 02:17:42.843803149+00:00,7
2023-12-11 02:17:42.851677165+00:00,7
2023-12-11 02:17:42.859551181+00:00,1
2023-12-11 02:17:42.867425196+00:00,4
2023-12-11 02:17:42.875299212+00:00,-2
2023-12-11 02:17:42.883173228+00:00,1
2023-12-11 02:17:42.891047244+00:00,5
2023-12-11 02:17:42.898921259+00:00,3
2023-12-11 02:17:42.906795275+00:00,0
2023-12-11 02:17:42.914669291+00:00,2
2023-12-11 02:17:42.922543307+00:00,-6
2023-12-11 02:17:42.930417322+00:00,-4
2023-12-11 02:17:42.938291338+00:00,-9
2023-12-11 02:17:42.946165354+00:00,-11
2023-12-11 02:17:42.954039370+00:00,-14
2023-12-11 02:17:42.961913385+00:00,-10
2023-12-11 02:17:42.969787401+00:00,11
2023-12-11 02:17:42.977661417+00:00,16
2023-12-11 02:17:42.985535433+00:00,26
2023-12-11 02:17:42.993409448+00:00,25
2023-12-11 02:17:43.001283464+00:00,16
2023-12-11 02:17:43.009157480+00:00,21
2023-12-11 02:17:43.017031496+00:00,32
2023-12-11 02:17:43.024905511+00:00,30
2023-12-11 02:17:43.032779527+00:00,27
2023-12-11 02:17:43.040653543+00:00,7
2023-12-11 02:17:43.048527559+00:00,-2
2023-12-11 02:17:43.056401574+00:00,-16
2023-12-11 02:17:43.064275590+00:00,-17
2023-12-11 02:17:43.072149606+00:00,-19
2023-12-11 02:17:43.080023622+00:00,-54
2023-12-11 02:17:43.087897637+00:00,-35
2023-12-11 02:17:43.095771653+00:00,256
2023-12-11 02:17:43.103645669+00:00,724
2023-12-11 02:17:43.111519685+00:00,622
2023-12-11 02:17:43.119393700+00:00,0
2023-12-11 02:17:43.127267716+00:00,-102
2023-12-11 02:17:43.135141732+00:00,-85
2023-12-11 02:17:43.143015748+00:00,-34
2023-12-11 02:17:43.150889763+00:00,-17
2023-12-11 02:17:43.158763779+00:00,-21
2023-12-11 02:17:43.166637795+00:00,-19
2023-12-11 02:17:43.174511811+00:00,-17
2023-12-11 02:17:43.182385826+00:00,-21
2023-12-11 02:17:43.190259842+00:00,-21
2023-12-11 02:17:43.198133858+00:00,-17
2023-12-11 02:17:43.206007874+00:00,-17
2023-12-11 02:17:43.213881889+00:00,-12
2023-12-11 02:17:43.221755905+00:00,-15
2023-12-11 02:17:43.229629921+00:00,-10
2023-12-11 02:17:43.237503937+00:00,-7
2023-12-11 02:17:43.245377952+00:00,-9
2023-12-11 02:17:43.253251968+00:00,-2
2023-12-11 02:17:43.261125984+00:00,0
2023-12-11 02:17:43.269000+00:00,9
2023-12-11 02:17:43.269000+00:00,17
2023-12-11 02:17:43.276874015+00:00,16
2023-12-11 02:17:43.284748031+00:00,24
2023-12-11 02:17:43.292622047+00:00,26
2023-12-11 02:17:43.300496062+00:00,34
2023-12-11 02:17:43.308370078+00:00,40
2023-12-11 02:17:43.316244094+00:00,44
2023-12-11 02:17:43.324118110+00:00,58
2023-12-11 02:17:43.331992125+00:00,66
2023-12-11 02:17:43.339866141+00:00,79
2023-12-11 02:17:43.347740157+00:00,93
2023-12-11 02:17:43.355614173+00:00,103
2023-12-11 02:17:43.363488188+00:00,122
2023-12-11 02:17:43.371362204+00:00,134
2023-12-11 02:17:43.379236220+00:00,139
2023-12-11 02:17:43.387110236+00:00,149
2023-12-11 02:17:43.394984251+00:00,145
2023-12-11 02:17:43.402858267+00:00,144
2023-12-11 02:17:43.410732283+00:00,136
2023-12-11 02:17:43.418606299+00:00,131
2023-12-11 02:17:43.426480314+00:00,121
2023-12-11 02:17:43.434354330+00:00,109
2023-12-11 02:17:43.442228346+00:00,96
2023-12-11 02:17:43.450102362+00:00,79
2023-12-11 02:17:43.457976377+00:00,64
2023-12-11 02:17:43.465850393+00:00,56
2023-12-11 02:17:43.473724409+00:00,41
2023-12-11 02:17:43.481598425+00:00,39
2023-12-11 02:17:43.489472440+00:00,34
2023-12-11 02:17:43.497346456+00:00,25
2023-12-11 02:17:43.505220472+00:00,27
2023-12-11 02:17:43.513094488+00:00,25
2023-12-11 02:17:43.520968503+00:00,22
2023-12-11 02:17:43.528842519+00:00,25
2023-12-11 02:17:43.536716535+00:00,19
2023-12-11 02:17:43.544590551+00:00,23
2023-12-11 02:17:43.552464566+00:00,22
2023-12-11 02:17:43.560338582+00:00,10
2023-12-11 02:17:43.568212598+00:00,16
2023-12-11 02:17:43.576086614+00:00,5
2023-12-11 02:17:43.583960629+00:00,6
2023-12-11 02:17:43.591834645+00:00,6
2023-12-11 02:17:43.599708661+00:00,-2
2023-12-11 02:17:43.607582677+00:00,4
2023-12-11 02:17:43.615456692+00:00,-4
2023-12-11 02:17:43.623330708+00:00,-6
2023-12-11 02:17:43.631204724+00:00,-3
2023-12-11 02:17:43.639078740+00:00,-11
2023-12-11 02:17:43.646952755+00:00,-9
2023-12-11 02:17:43.654826771+00:00,-14
2023-12-11 02:17:43.662700787+00:00,-9
2023-12-11 02:17:43.670574803+00:00,-6
2023-12-11 02:17:43.678448818+00:00,-13
2023-12-11 02:17:43.686322834+00:00,-8
2023-12-11 02:17:43.694196850+00:00,-11
2023-12-11 02:17:43.702070866+00:00,-14
2023-12-11 02:17:43.709944881+00:00,-8
2023-12-11 02:17:43.717818897+00:00,-10
2023-12-11 02:17:43.725692913+00:00,-10
2023-12-11 02:17:43.733566929+00:00,-6
2023-12-11 02:17:43.741440944+00:00,-11
2023-12-11 02:17:43.749314960+00:00,-6
2023-12-11 02:17:43.757188976+00:00,-7
2023-12-11 02:17:43.765062992+00:00,1
2023-12-11 02:17:43.772937007+00:00,12
2023-12-11 02:17:43.780811023+00:00,13
2023-12-11 02:17:43.788685039+00:00,12
2023-12-11 02:17:43.796559055+00:00,13
2023-12-11 02:17:43.804433070+00:00,14
2023-12-11 02:17:43.812307086+00:00,18
2023-12-11 02:17:43.820181102+00:00,15
2023-12-11 02:17:43.828055118+00:00,2
2023-12-11 02:17:43.835929133+00:00,-7
2023-12-11 02:17:43.843803149+00:00,-22
2023-12-11 02:17:43.851677165+00:00,-23
2023-12-11 02:17:43.859551181+00:00,-24
2023-12-11 02:17:43.867425196+00:00,-42
2023-12-11 02:17:43.875299212+00:00,-66
2023-12-11 02:17:43.883173228+00:00,77
2023-12-11 02:17:43.891047244+00:00,563
2023-12-11 02:17:43.898921259+00:00,794
2023-12-11 02:17:43.906795275+00:00,194
2023-12-11 02:17:43.914669291+00:00,-96
2023-12-11 02:17:43.922543307+00:00,-134
2023-12-11 02:17:43.930417322+00:00,-74
2023-12-11 02:17:43.938291338+00:00,-47
2023-12-11 02:17:43.946165354+00:00,-48
2023-12-11 02:17:43.954039370+00:00,-45
2023-12-11 02:17:43.961913385+00:00,-45
2023-12-11 02:17:43.969787401+00:00,-34
2023-12-11 02:17:43.977661417+00:00,-35
2023-12-11 02:17:43.985535433+00:00,-33
2023-12-11 02:17:43.993409448+00:00,-28
2023-12-11 02:17:44.001283464+00:00,-27
2023-12-11 02:17:44.009157480+00:00,-24
2023-12-11 02:17:44.017031496+00:00,-25
2023-12-11 02:17:44.024905511+00:00,-22
2023-12-11 02:17:44.032779527+00:00,-17
2023-12-11 02:17:44.040653543+00:00,-19
2023-12-11 02:17:44.048527559+00:00,-14
2023-12-11 02:17:44.056401574+00:00,-13
2023-12-11 02:17:44.064275590+00:00,-13
2023-12-11 02:17:44.072149606+00:00,-1
2023-12-11 02:17:44.080023622+00:00,1
2023-12-11 02:17:44.087897637+00:00,1
2023-12-11 02:17:44.095771653+00:00,8
2023-12-11 02:17:44.103645669+00:00,8
2023-12-11 02:17:44.111519685+00:00,23
2023-12-11 02:17:44.119393700+00:00,24
2023-12-11 02:17:44.127267716+00:00,30
2023-12-11 02:17:44.135141732+00:00,44
2023-12-11 02:17:44.143015748+00:00,57
2023-12-11 02:17:44.150889763+00:00,77
2023-12-11 02:17:44.158763779+00:00,83
2023-12-11 02:17:44.166637795+00:00,97
2023-12-11 02:17:44.174511811+00:00,107
2023-12-11 02:17:44.182385826+00:00,109
2023-12-11 02:17:44.190259842+00:00,116
2023-12-11 02:17:44.198133858+00:00,110
2023-12-11 02:17:44.206007874+00:00,103
2023-12-11 02:17:44.213881889+00:00,102
2023-12-11 02:17:44.221755905+00:00,90
2023-12-11 02:17:44.229629921+00:00,82
2023-12-11 02:17:44.237503937+00:00,65
2023-12-11 02:17:44.245377952+00:00,48
2023-12-11 02:17:44.253251968+00:00,36
2023-12-11 02:17:44.261125984+00:00,26
2023-12-11 02:17:44.269000+00:00,16
2023-12-11 02:17:44.269000+00:00,16
2023-12-11 02:17:44.276874015+00:00,2
2023-12-11 02:17:44.284748031+00:00,4
2023-12-11 02:17:44.292622047+00:00,-4
2023-12-11 02:17:44.300496062+00:00,-7
2023-12-11 02:17:44.308370078+00:00,-4
2023-12-11 02:17:44.316244094+00:00,-5
2023-12-11 02:17:44.324118110+00:00,-1
2023-12-11 02:17:44.331992125+00:00,-3
2023-12-11 02:17:44.339866141+00:00,-6
2023-12-11 02:17:44.347740157+00:00,-3
2023-12-11 02:17:44.355614173+00:00,-4
2023-12-11 02:17:44.363488188+00:00,-7
2023-12-11 02:17:44.371362204+00:00,-13
2023-12-11 02:17:44.379236220+00:00,-15
2023-12-11 02:17:44.387110236+00:00,-11
2023-12-11 02:17:44.394984251+00:00,-21
2023-12-11 02:17:44.402858267+00:00,-23
2023-12-11 02:17:44.410732283+00:00,-18
2023-12-11 02:17:44.418606299+00:00,-19
2023-12-11 02:17:44.426480314+00:00,-18
2023-12-11 02:17:44.434354330+00:00,-25
2023-12-11 02:17:44.442228346+00:00,-22
2023-12-11 02:17:44.450102362+00:00,-22
2023-12-11 02:17:44.457976377+00:00,-23
2023-12-11 02:17:44.465850393+00:00,-23
2023-12-11 02:17:44.473724409+00:00,-29
2023-12-11 02:17:44.481598425+00:00,-30
2023-12-11 02:17:44.489472440+00:00,-25
2023-12-11 02:17:44.497346456+00:00,-30
2023-12-11 02:17:44.505220472+00:00,-25
2023-12-11 02:17:44.513094488+00:00,-23
2023-12-11 02:17:44.520968503+00:00,-25
2023-12-11 02:17:44.528842519+00:00,-22
2023-12-11 02:17:44.536716535+00:00,-26
2023-12-11 02:17:44.544590551+00:00,-20
2023-12-11 02:17:44.552464566+00:00,-10
2023-12-11 02:17:44.560338582+00:00,-4
2023-12-11 02:17:44.568212598+00:00,9
2023-12-11 02:17:44.576086614+00:00,6
2023-12-11 02:17:44.583960629+00:00,4
2023-12-11 02:17:44.591834645+00:00,11
2023-12-11 02:17:44.599708661+00:00,6
2023-12-11 02:17:44.607582677+00:00,14
2023-12-11 02:17:44.615456692+00:00,10
2023-12-11 02:17:44.623330708+00:00,-1
2023-12-11 02:17:44.631204724+00:00,-11
2023-12-11 02:17:44.639078740+00:00,-31
2023-12-11 02:17:44.646952755+00:00,-30
2023-12-11 02:17:44.654826771+00:00,-29
2023-12-11 02:17:44.662700787+00:00,-64
2023-12-11 02:17:44.670574803+00:00,-61
2023-12-11 02:17:44.678448818+00:00,209
2023-12-11 02:17:44.686322834+00:00,709
2023-12-11 02:17:44.694196850+00:00,650
2023-12-11 02:17:44.702070866+00:00,6
2023-12-11 02:17:44.709944881+00:00,-116
2023-12-11 02:17:44.717818897+00:00,-123
2023-12-11 02:17:44.725692913+00:00,-70
2023-12-11 02:17:44.733566929+00:00,-59
2023-12-11 02:17:44.741440944+00:00,-59
2023-12-11 02:17:44.749314960+00:00,-54
2023-12-11 02:17:44.757188976+00:00,-52
2023-12-11 02:17:44.765062992+00:00,-50
2023-12-11 02:17:44.772937007+00:00,-47
2023-12-11 02:17:44.780811023+00:00,-47
2023-12-11 02:17:44.788685039+00:00,-37
2023-12-11 02:17:44.796559055+00:00,-37
2023-12-11 02:17:44.804433070+00:00,-38
2023-12-11 02:17:44.812307086+00:00,-31
2023-12-11 02:17:44.820181102+00:00,-25
2023-12-11 02:17:44.828055118+00:00,-22
2023-12-11 02:17:44.835929133+00:00,-21
2023-12-11 02:17:44.843803149+00:00,-16
2023-12-11 02:17:44.851677165+00:00,-13
2023-12-11 02:17:44.859551181+00:00,-14
2023-12-11 02:17:44.867425196+00:00,-7
2023-12-11 02:17:44.875299212+00:00,0
2023-12-11 02:17:44.883173228+00:00,1
2023-12-11 02:17:44.891047244+00:00,9
2023-12-11 02:17:44.898921259+00:00,7
2023-12-11 02:17:44.906795275+00:00,17
2023-12-11 02:17:44.914669291+00:00,23
2023-12-11 02:17:44.922543307+00:00,25
2023-12-11 02:17:44.930417322+00:00,40
2023-12-11 02:17:44.938291338+00:00,47
2023-12-11 02:17:44.946165354+00:00,61
2023-12-11 02:17:44.954039370+00:00,77
2023-12-11 02:17:44.961913385+00:00,85
2023-12-11 02:17:44.969787401+00:00,100
2023-12-11 02:17:44.977661417+00:00,103
2023-12-11 02:17:44.985535433+00:00,101
2023-12-11 02:17:44.993409448+00:00,107
2023-12-11 02:17:45.001283464+00:00,97
2023-12-11 02:17:45.009157480+00:00,97
2023-12-11 02:17:45.017031496+00:00,90
2023-12-11 02:17:45.024905511+00:00,80
2023-12-11 02:17:45.032779527+00:00,65
2023-12-11 02:17:45.040653543+00:00,53
2023-12-11 02:17:45.048527559+00:00,36
2023-12-11 02:17:45.056401574+00:00,24
2023-12-11 02:17:45.064275590+00:00,10
2023-12-11 02:17:45.072149606+00:00,11
2023-12-11 02:17:45.080023622+00:00,-2
2023-12-11 02:17:45.087897637+00:00,-6
2023-12-11 02:17:45.095771653+00:00,-3
2023-12-11 02:17:45.103645669+00:00,-6
2023-12-11 02:17:45.111519685+00:00,-1
2023-12-11 02:17:45.119393700+00:00,1
2023-12-11 02:17:45.127267716+00:00,-1
2023-12-11 02:17:45.135141732+00:00,-1
2023-12-11 02:17:45.143015748+00:00,-6
2023-12-11 02:17:45.150889763+00:00,-4
2023-12-11 02:17:45.158763779+00:00,-8
2023-12-11 02:17:45.166637795+00:00,-15
2023-12-11 02:17:45.174511811+00:00,-11
2023-12-11 02:17:45.182385826+00:00,-11
2023-12-11 02:17:45.190259842+00:00,-12
2023-12-11 02:17:45.198133858+00:00,-16
2023-12-11 02:17:45.206007874+00:00,-18
2023-12-11 02:17:45.213881889+00:00,-13
2023-12-11 02:17:45.221755905+00:00,-16
2023-12-11 02:17:45.229629921+00:00,-18
2023-12-11 02:17:45.237503937+00:00,-17
2023-12-11 02:17:45.245377952+00:00,-25
2023-12-11 02:17:45.253251968+00:00,-21
2023-12-11 02:17:45.261125984+00:00,-19
2023-12-11 02:17:45.269000+00:00,-20
2023-12-11 02:17:45.269000+00:00,-20
2023-12-11 02:17:45.276874015+00:00,-25
2023-12-11 02:17:45.284748031+00:00,-22
2023-12-11 02:17:45.292622047+00:00,-27
2023-12-11 02:17:45.300496062+00:00,-29
2023-12-11 02:17:45.308370078+00:00,-23
2023-12-11 02:17:45.316244094+00:00,-25
2023-12-11 02:17:45.324118110+00:00,-25
2023-12-11 02:17:45.331992125+00:00,-24
2023-12-11 02:17:45.339866141+00:00,-25
2023-12-11 02:17:45.347740157+00:00,-9
2023-12-11 02:17:45.355614173+00:00,1
2023-12-11 02:17:45.363488188+00:00,14
2023-12-11 02:17:45.371362204+00:00,13
2023-12-11 02:17:45.379236220+00:00,5
2023-12-11 02:17:45.387110236+00:00,16
2023-12-11 02:17:45.394984251+00:00,14
2023-12-11 02:17:45.402858267+00:00,13
2023-12-11 02:17:45.410732283+00:00,4
2023-12-11 02:17:45.418606299+00:00,-8
2023-12-11 02:17:45.426480314+00:00,-14
2023-12-11 02:17:45.434354330+00:00,-26
2023-12-11 02:17:45.442228346+00:00,-26
2023-12-11 02:17:45.450102362+00:00,-27
2023-12-11 02:17:45.457976377+00:00,-67
2023-12-11 02:17:45.465850393+00:00,-34
2023-12-11 02:17:45.473724409+00:00,301
2023-12-11 02:17:45.481598425+00:00,709
2023-12-11 02:17:45.489472440+00:00,468
2023-12-11 02:17:45.497346456+00:00,-42
2023-12-11 02:17:45.505220472+00:00,-106
2023-12-11 02:17:45.513094488+00:00,-81
2023-12-11 02:17:45.520968503+00:00,-44
2023-12-11 02:17:45.528842519+00:00,-41
2023-12-11 02:17:45.536716535+00:00,-41
2023-12-11 02:17:45.544590551+00:00,-37
2023-12-11 02:17:45.552464566+00:00,-35
2023-12-11 02:17:45.560338582+00:00,-33
2023-12-11 02:17:45.568212598+00:00,-27
2023-12-11 02:17:45.576086614+00:00,-24
2023-12-11 02:17:45.583960629+00:00,-23
2023-12-11 02:17:45.591834645+00:00,-19
2023-12-11 02:17:45.599708661+00:00,-24
2023-12-11 02:17:45.607582677+00:00,-17
2023-12-11 02:17:45.615456692+00:00,-11
2023-12-11 02:17:45.623330708+00:00,-12
2023-12-11 02:17:45.631204724+00:00,-6
2023-12-11 02:17:45.639078740+00:00,-8
2023-12-11 02:17:45.646952755+00:00,-2
2023-12-11 02:17:45.654826771+00:00,2
2023-12-11 02:17:45.662700787+00:00,2
2023-12-11 02:17:45.670574803+00:00,9
2023-12-11 02:17:45.678448818+00:00,10
2023-12-11 02:17:45.686322834+00:00,17
2023-12-11 02:17:45.694196850+00:00,26
2023-12-11 02:17:45.702070866+00:00,30
2023-12-11 02:17:45.709944881+00:00,42
2023-12-11 02:17:45.717818897+00:00,49
2023-12-11 02:17:45.725692913+00:00,57
2023-12-11 02:17:45.733566929+00:00,68
2023-12-11 02:17:45.741440944+00:00,74
2023-12-11 02:17:45.749314960+00:00,89
2023-12-11 02:17:45.757188976+00:00,99
2023-12-11 02:17:45.765062992+00:00,103
2023-12-11 02:17:45.772937007+00:00,106
2023-12-11 02:17:45.780811023+00:00,103
2023-12-11 02:17:45.788685039+00:00,104
2023-12-11 02:17:45.796559055+00:00,102
2023-12-11 02:17:45.804433070+00:00,89
2023-12-11 02:17:45.812307086+00:00,88
2023-12-11 02:17:45.820181102+00:00,68
2023-12-11 02:17:45.828055118+00:00,58
2023-12-11 02:17:45.835929133+00:00,48
2023-12-11 02:17:45.843803149+00:00,28
2023-12-11 02:17:45.851677165+00:00,18
2023-12-11 02:17:45.859551181+00:00,7
2023-12-11 02:17:45.867425196+00:00,-1
2023-12-11 02:17:45.875299212+00:00,-3
2023-12-11 02:17:45.883173228+00:00,-10
2023-12-11 02:17:45.891047244+00:00,-9
2023-12-11 02:17:45.898921259+00:00,-10
2023-12-11 02:17:45.906795275+00:00,-8
2023-12-11 02:17:45.914669291+00:00,-6
2023-12-11 02:17:45.922543307+00:00,-7
2023-12-11 02:17:45.930417322+00:00,-9
2023-12-11 02:17:45.938291338+00:00,-11
2023-12-11 02:17:45.946165354+00:00,-13
2023-12-11 02:17:45.954039370+00:00,-16
2023-12-11 02:17:45.961913385+00:00,-18
2023-12-11 02:17:45.969787401+00:00,-19
2023-12-11 02:17:45.977661417+00:00,-21
2023-12-11 02:17:45.985535433+00:00,-24
2023-12-11 02:17:45.993409448+00:00,-21
2023-12-11 02:17:46.001283464+00:00,-27
2023-12-11 02:17:46.009157480+00:00,-28
2023-12-11 02:17:46.017031496+00:00,-20
2023-12-11 02:17:46.024905511+00:00,-24
2023-12-11 02:17:46.032779527+00:00,-26
2023-12-11 02:17:46.040653543+00:00,-26
2023-12-11 02:17:46.048527559+00:00,-27
2023-12-11 02:17:46.056401574+00:00,-22
2023-12-11 02:17:46.064275590+00:00,-26
2023-12-11 02:17:46.072149606+00:00,-24
2023-12-11 02:17:46.080023622+00:00,-32
2023-12-11 02:17:46.087897637+00:00,-33
2023-12-11 02:17:46.095771653+00:00,-30
2023-12-11 02:17:46.103645669+00:00,-34
2023-12-11 02:17:46.111519685+00:00,-28
2023-12-11 02:17:46.119393700+00:00,-29
2023-12-11 02:17:46.127267716+00:00,-36
2023-12-11 02:17:46.135141732+00:00,-33
2023-12-11 02:17:46.143015748+00:00,-26
2023-12-11 02:17:46.150889763+00:00,-15
2023-12-11 02:17:46.158763779+00:00,1
2023-12-11 02:17:46.166637795+00:00,6
2023-12-11 02:17:46.174511811+00:00,8
2023-12-11 02:17:46.182385826+00:00,-2
2023-12-11 02:17:46.190259842+00:00,5
2023-12-11 02:17:46.198133858+00:00,13
2023-12-11 02:17:46.206007874+00:00,2
2023-12-11 02:17:46.213881889+00:00,-9
2023-12-11 02:17:46.221755905+00:00,-20
2023-12-11 02:17:46.229629921+00:00,-35
2023-12-11 02:17:46.237503937+00:00,-38
2023-12-11 02:17:46.245377952+00:00,-44
2023-12-11 02:17:46.253251968+00:00,-53
2023-12-11 02:17:46.261125984+00:00,-87
2023-12-11 02:17:46.269000+00:00,11
2023-12-11 02:17:46.269000+00:00,420
2023-12-11 02:17:46.276874015+00:00,695
2023-12-11 02:17:46.284748031+00:00,249
2023-12-11 02:17:46.292622047+00:00,-100
2023-12-11 02:17:46.300496062+00:00,-116
2023-12-11 02:17:46.308370078+00:00,-69
2023-12-11 02:17:46.316244094+00:00,-65
2023-12-11 02:17:46.324118110+00:00,-66
2023-12-11 02:17:46.331992125+00:00,-63
2023-12-11 02:17:46.339866141+00:00,-60
2023-12-11 02:17:46.347740157+00:00,-52
2023-12-11 02:17:46.355614173+00:00,-53
2023-12-11 02:17:46.363488188+00:00,-53
2023-12-11 02:17:46.371362204+00:00,-49
2023-12-11 02:17:46.379236220+00:00,-54
2023-12-11 02:17:46.387110236+00:00,-46
2023-12-11 02:17:46.394984251+00:00,-44
2023-12-11 02:17:46.402858267+00:00,-41
2023-12-11 02:17:46.410732283+00:00,-34
2023-12-11 02:17:46.418606299+00:00,-33
2023-12-11 02:17:46.426480314+00:00,-29
2023-12-11 02:17:46.434354330+00:00,-22
2023-12-11 02:17:46.442228346+00:00,-26
2023-12-11 02:17:46.450102362+00:00,-22
2023-12-11 02:17:46.457976377+00:00,-21
2023-12-11 02:17:46.465850393+00:00,-17
2023-12-11 02:17:46.473724409+00:00,-8
2023-12-11 02:17:46.481598425+00:00,-11
2023-12-11 02:17:46.489472440+00:00,-4
2023-12-11 02:17:46.497346456+00:00,7
2023-12-11 02:17:46.505220472+00:00,11
2023-12-11 02:17:46.513094488+00:00,18
2023-12-11 02:17:46.520968503+00:00,23
2023-12-11 02:17:46.528842519+00:00,36
2023-12-11 02:17:46.536716535+00:00,46
2023-12-11 02:17:46.544590551+00:00,58
2023-12-11 02:17:46.552464566+00:00,73
2023-12-11 02:17:46.560338582+00:00,74
2023-12-11 02:17:46.568212598+00:00,79
2023-12-11 02:17:46.576086614+00:00,83
2023-12-11 02:17:46.583960629+00:00,78
2023-12-11 02:17:46.591834645+00:00,75
2023-12-11 02:17:46.599708661+00:00,63
2023-12-11 02:17:46.607582677+00:00,52
2023-12-11 02:17:46.615456692+00:00,37
2023-12-11 02:17:46.623330708+00:00,18
2023-12-11 02:17:46.631204724+00:00,6
2023-12-11 02:17:46.639078740+00:00,-5
2023-12-11 02:17:46.646952755+00:00,-16
2023-12-11 02:17:46.654826771+00:00,-22
2023-12-11 02:17:46.662700787+00:00,-29
2023-12-11 02:17:46.670574803+00:00,-29
2023-12-11 02:17:46.678448818+00:00,-30
2023-12-11 02:17:46.686322834+00:00,-36
2023-12-11 02:17:46.694196850+00:00,-28
2023-12-11 02:17:46.702070866+00:00,-34
2023-12-11 02:17:46.709944881+00:00,-34
2023-12-11 02:17:46.717818897+00:00,-31
2023-12-11 02:17:46.725692913+00:00,-35
2023-12-11 02:17:46.733566929+00:00,-38
2023-12-11 02:17:46.741440944+00:00,-39
2023-12-11 02:17:46.749314960+00:00,-40
2023-12-11 02:17:46.757188976+00:00,-38
2023-12-11 02:17:46.765062992+00:00,-52
2023-12-11 02:17:46.772937007+00:00,-50
2023-12-11 02:17:46.780811023+00:00,-56
2023-12-11 02:17:46.788685039+00:00,-59
2023-12-11 02:17:46.796559055+00:00,-51
2023-12-11 02:17:46.804433070+00:00,-57
2023-12-11 02:17:46.812307086+00:00,-49
2023-12-11 02:17:46.820181102+00:00,-53
2023-12-11 02:17:46.828055118+00:00,-50
2023-12-11 02:17:46.835929133+00:00,-53
2023-12-11 02:17:46.843803149+00:00,-58
2023-12-11 02:17:46.851677165+00:00,-54
2023-12-11 02:17:46.859551181+00:00,-57
2023-12-11 02:17:46.867425196+00:00,-61
2023-12-11 02:17:46.875299212+00:00,-51
2023-12-11 02:17:46.883173228+00:00,-58
2023-12-11 02:17:46.891047244+00:00,-57
2023-12-11 02:17:46.898921259+00:00,-56
2023-12-11 02:17:46.906795275+00:00,-60
2023-12-11 02:17:46.914669291+00:00,-56
2023-12-11 02:17:46.922543307+00:00,-59
2023-12-11 02:17:46.930417322+00:00,-59
2023-12-11 02:17:46.938291338+00:00,-54
2023-12-11 02:17:46.946165354+00:00,-47
2023-12-11 02:17:46.954039370+00:00,-40
2023-12-11 02:17:46.961913385+00:00,-32
2023-12-11 02:17:46.969787401+00:00,-35
2023-12-11 02:17:46.977661417+00:00,-40
2023-12-11 02:17:46.985535433+00:00,-44
2023-12-11 02:17:46.993409448+00:00,-31
2023-12-11 02:17:47.001283464+00:00,-34
2023-12-11 02:17:47.009157480+00:00,-42
2023-12-11 02:17:47.017031496+00:00,-49
2023-12-11 02:17:47.024905511+00:00,-63
2023-12-11 02:17:47.032779527+00:00,-71
2023-12-11 02:17:47.040653543+00:00,-73
2023-12-11 02:17:47.048527559+00:00,-80
2023-12-11 02:17:47.056401574+00:00,-108
2023-12-11 02:17:47.064275590+00:00,-93
2023-12-11 02:17:47.072149606+00:00,223
2023-12-11 02:17:47.080023622+00:00,690
2023-12-11 02:17:47.087897637+00:00,536
2023-12-11 02:17:47.095771653+00:00,-70
2023-12-11 02:17:47.103645669+00:00,-167
2023-12-11 02:17:47.111519685+00:00,-156
2023-12-11 02:17:47.119393700+00:00,-93
2023-12-11 02:17:47.127267716+00:00,-88
2023-12-11 02:17:47.135141732+00:00,-85
2023-12-11 02:17:47.143015748+00:00,-84
2023-12-11 02:17:47.150889763+00:00,-87
2023-12-11 02:17:47.158763779+00:00,-81
2023-12-11 02:17:47.166637795+00:00,-81
2023-12-11 02:17:47.174511811+00:00,-78
2023-12-11 02:17:47.182385826+00:00,-68
2023-12-11 02:17:47.190259842+00:00,-71
2023-12-11 02:17:47.198133858+00:00,-61
2023-12-11 02:17:47.206007874+00:00,-64
2023-12-11 02:17:47.213881889+00:00,-63
2023-12-11 02:17:47.221755905+00:00,-58
2023-12-11 02:17:47.229629921+00:00,-57
2023-12-11 02:17:47.237503937+00:00,-48
2023-12-11 02:17:47.245377952+00:00,-50
2023-12-11 02:17:47.253251968+00:00,-52
2023-12-11 02:17:47.261125984+00:00,-46
2023-12-11 02:17:47.269000+00:00,-46
2023-12-11 02:17:47.269000+00:00,-42
2023-12-11 02:17:47.276874015+00:00,-37
2023-12-11 02:17:47.284748031+00:00,-28
2023-12-11 02:17:47.292622047+00:00,-22
2023-12-11 02:17:47.300496062+00:00,-20
2023-12-11 02:17:47.308370078+00:00,-9
2023-12-11 02:17:47.316244094+00:00,8
2023-12-11 02:17:47.324118110+00:00,16
2023-12-11 02:17:47.331992125+00:00,35
2023-12-11 02:17:47.339866141+00:00,38
2023-12-11 02:17:47.347740157+00:00,52
2023-12-11 02:17:47.355614173+00:00,65
2023-12-11 02:17:47.363488188+00:00,62
2023-12-11 02:17:47.371362204+00:00,75
2023-12-11 02:17:47.379236220+00:00,67
2023-12-11 02:17:47.387110236+00:00,68
2023-12-11 02:17:47.394984251+00:00,57
2023-12-11 02:17:47.402858267+00:00,37
2023-12-11 02:17:47.410732283+00:00,32
2023-12-11 02:17:47.418606299+00:00,19
2023-12-11 02:17:47.426480314+00:00,10
2023-12-11 02:17:47.434354330+00:00,3
2023-12-11 02:17:47.442228346+00:00,-15
2023-12-11 02:17:47.450102362+00:00,-22
2023-12-11 02:17:47.457976377+00:00,-36
2023-12-11 02:17:47.465850393+00:00,-43
2023-12-11 02:17:47.473724409+00:00,-44
2023-12-11 02:17:47.481598425+00:00,-54
2023-12-11 02:17:47.489472440+00:00,-47
2023-12-11 02:17:47.497346456+00:00,-45
2023-12-11 02:17:47.505220472+00:00,-50
2023-12-11 02:17:47.513094488+00:00,-51
2023-12-11 02:17:47.520968503+00:00,-53
2023-12-11 02:17:47.528842519+00:00,-52
2023-12-11 02:17:47.536716535+00:00,-55
2023-12-11 02:17:47.544590551+00:00,-57
2023-12-11 02:17:47.552464566+00:00,-56
2023-12-11 02:17:47.560338582+00:00,-60
2023-12-11 02:17:47.568212598+00:00,-54
2023-12-11 02:17:47.576086614+00:00,-58
2023-12-11 02:17:47.583960629+00:00,-68
2023-12-11 02:17:47.591834645+00:00,-68
2023-12-11 02:17:47.599708661+00:00,-65
2023-12-11 02:17:47.607582677+00:00,-68
2023-12-11 02:17:47.615456692+00:00,-64
2023-12-11 02:17:47.623330708+00:00,-69
2023-12-11 02:17:47.631204724+00:00,-74
2023-12-11 02:17:47.639078740+00:00,-77
2023-12-11 02:17:47.646952755+00:00,-78
2023-12-11 02:17:47.654826771+00:00,-77
2023-12-11 02:17:47.662700787+00:00,-77
2023-12-11 02:17:47.670574803+00:00,-75
2023-12-11 02:17:47.678448818+00:00,-69
2023-12-11 02:17:47.686322834+00:00,-72
2023-12-11 02:17:47.694196850+00:00,-73
2023-12-11 02:17:47.702070866+00:00,-73
2023-12-11 02:17:47.709944881+00:00,-71
2023-12-11 02:17:47.717818897+00:00,-67
2023-12-11 02:17:47.725692913+00:00,-75
2023-12-11 02:17:47.733566929+00:00,-72
2023-12-11 02:17:47.741440944+00:00,-65
2023-12-11 02:17:47.749314960+00:00,-53
2023-12-11 02:17:47.757188976+00:00,-44
2023-12-11 02:17:47.765062992+00:00,-39
2023-12-11 02:17:47.772937007+00:00,-34
2023-12-11 02:17:47.780811023+00:00,-42
2023-12-11 02:17:47.788685039+00:00,-36
2023-12-11 02:17:47.796559055+00:00,-34
2023-12-11 02:17:47.804433070+00:00,-40
2023-12-11 02:17:47.812307086+00:00,-54
2023-12-11 02:17:47.820181102+00:00,-59
2023-12-11 02:17:47.828055118+00:00,-75
2023-12-11 02:17:47.835929133+00:00,-70
2023-12-11 02:17:47.843803149+00:00,-79
2023-12-11 02:17:47.851677165+00:00,-86
2023-12-11 02:17:47.859551181+00:00,-108
2023-12-11 02:17:47.867425196+00:00,4
2023-12-11 02:17:47.875299212+00:00,444
2023-12-11 02:17:47.883173228+00:00,697
2023-12-11 02:17:47.891047244+00:00,181
2023-12-11 02:17:47.898921259+00:00,-135
2023-12-11 02:17:47.906795275+00:00,-178
2023-12-11 02:17:47.914669291+00:00,-120
2023-12-11 02:17:47.922543307+00:00,-91
2023-12-11 02:17:47.930417322+00:00,-86
2023-12-11 02:17:47.938291338+00:00,-82
2023-12-11 02:17:47.946165354+00:00,-83
2023-12-11 02:17:47.954039370+00:00,-77
2023-12-11 02:17:47.961913385+00:00,-73
2023-12-11 02:17:47.969787401+00:00,-75
2023-12-11 02:17:47.977661417+00:00,-71
2023-12-11 02:17:47.985535433+00:00,-70
2023-12-11 02:17:47.993409448+00:00,-67
2023-12-11 02:17:48.001283464+00:00,-66
2023-12-11 02:17:48.009157480+00:00,-70
2023-12-11 02:17:48.017031496+00:00,-63
2023-12-11 02:17:48.024905511+00:00,-62
2023-12-11 02:17:48.032779527+00:00,-55
2023-12-11 02:17:48.040653543+00:00,-53
2023-12-11 02:17:48.048527559+00:00,-54
2023-12-11 02:17:48.056401574+00:00,-48
2023-12-11 02:17:48.064275590+00:00,-42
2023-12-11 02:17:48.072149606+00:00,-42
2023-12-11 02:17:48.080023622+00:00,-35
2023-12-11 02:17:48.087897637+00:00,-31
2023-12-11 02:17:48.095771653+00:00,-22
2023-12-11 02:17:48.103645669+00:00,-20
2023-12-11 02:17:48.111519685+00:00,-15
2023-12-11 02:17:48.119393700+00:00,-1
2023-12-11 02:17:48.127267716+00:00,11
2023-12-11 02:17:48.135141732+00:00,26
2023-12-11 02:17:48.143015748+00:00,35
2023-12-11 02:17:48.150889763+00:00,46
2023-12-11 02:17:48.158763779+00:00,60
2023-12-11 02:17:48.166637795+00:00,65
2023-12-11 02:17:48.174511811+00:00,68
2023-12-11 02:17:48.182385826+00:00,70
2023-12-11 02:17:48.190259842+00:00,57
2023-12-11 02:17:48.198133858+00:00,53
2023-12-11 02:17:48.206007874+00:00,47
2023-12-11 02:17:48.213881889+00:00,40
2023-12-11 02:17:48.221755905+00:00,21
2023-12-11 02:17:48.229629921+00:00,5
2023-12-11 02:17:48.237503937+00:00,5
2023-12-11 02:17:48.245377952+00:00,-7
2023-12-11 02:17:48.253251968+00:00,-14
2023-12-11 02:17:48.261125984+00:00,-23
2023-12-11 02:17:48.269000+00:00,-29
2023-12-11 02:17:48.269000+00:00,-26
2023-12-11 02:17:48.276874015+00:00,-32
2023-12-11 02:17:48.284748031+00:00,-34
2023-12-11 02:17:48.292622047+00:00,-30
2023-12-11 02:17:48.300496062+00:00,-33
2023-12-11 02:17:48.308370078+00:00,-37
2023-12-11 02:17:48.316244094+00:00,-37
2023-12-11 02:17:48.324118110+00:00,-44
2023-12-11 02:17:48.331992125+00:00,-44
2023-12-11 02:17:48.339866141+00:00,-48
2023-12-11 02:17:48.347740157+00:00,-44
2023-12-11 02:17:48.355614173+00:00,-45
2023-12-11 02:17:48.363488188+00:00,-48
2023-12-11 02:17:48.371362204+00:00,-49
2023-12-11 02:17:48.379236220+00:00,-47
2023-12-11 02:17:48.387110236+00:00,-48
2023-12-11 02:17:48.394984251+00:00,-48
2023-12-11 02:17:48.402858267+00:00,-54
2023-12-11 02:17:48.410732283+00:00,-55
2023-12-11 02:17:48.418606299+00:00,-60
2023-12-11 02:17:48.426480314+00:00,-57
2023-12-11 02:17:48.434354330+00:00,-52
2023-12-11 02:17:48.442228346+00:00,-58
2023-12-11 02:17:48.450102362+00:00,-55
2023-12-11 02:17:48.457976377+00:00,-54
2023-12-11 02:17:48.465850393+00:00,-60
2023-12-11 02:17:48.473724409+00:00,-56
2023-12-11 02:17:48.481598425+00:00,-58
2023-12-11 02:17:48.489472440+00:00,-53
2023-12-11 02:17:48.497346456+00:00,-55
2023-12-11 02:17:48.505220472+00:00,-65
2023-12-11 02:17:48.513094488+00:00,-58
2023-12-11 02:17:48.520968503+00:00,-66
2023-12-11 02:17:48.528842519+00:00,-64
2023-12-11 02:17:48.536716535+00:00,-60
2023-12-11 02:17:48.544590551+00:00,-52
2023-12-11 02:17:48.552464566+00:00,-35
2023-12-11 02:17:48.560338582+00:00,-27
2023-12-11 02:17:48.568212598+00:00,-30
2023-12-11 02:17:48.576086614+00:00,-32
2023-12-11 02:17:48.583960629+00:00,-37
2023-12-11 02:17:48.591834645+00:00,-28
2023-12-11 02:17:48.599708661+00:00,-28
2023-12-11 02:17:48.607582677+00:00,-38
2023-12-11 02:17:48.615456692+00:00,-44
2023-12-11 02:17:48.623330708+00:00,-60
2023-12-11 02:17:48.631204724+00:00,-68
2023-12-11 02:17:48.639078740+00:00,-74
2023-12-11 02:17:48.646952755+00:00,-80
2023-12-11 02:17:48.654826771+00:00,-104
2023-12-11 02:17:48.662700787+00:00,-109
2023-12-11 02:17:48.670574803+00:00,121
2023-12-11 02:17:48.678448818+00:00,556
2023-12-11 02:17:48.686322834+00:00,537
2023-12-11 02:17:48.694196850+00:00,-6
2023-12-11 02:17:48.702070866+00:00,-144
2023-12-11 02:17:48.709944881+00:00,-130
2023-12-11 02:17:48.717818897+00:00,-83
2023-12-11 02:17:48.725692913+00:00,-89
2023-12-11 02:17:48.733566929+00:00,-84
2023-12-11 02:17:48.741440944+00:00,-83
2023-12-11 02:17:48.749314960+00:00,-84
2023-12-11 02:17:48.757188976+00:00,-76
2023-12-11 02:17:48.765062992+00:00,-79
2023-12-11 02:17:48.772937007+00:00,-75
2023-12-11 02:17:48.780811023+00:00,-76
2023-12-11 02:17:48.788685039+00:00,-78
2023-12-11 02:17:48.796559055+00:00,-68
2023-12-11 02:17:48.804433070+00:00,-70
2023-12-11 02:17:48.812307086+00:00,-65
2023-12-11 02:17:48.820181102+00:00,-60
2023-12-11 02:17:48.828055118+00:00,-62
2023-12-11 02:17:48.835929133+00:00,-53
2023-12-11 02:17:48.843803149+00:00,-54
2023-12-11 02:17:48.851677165+00:00,-57
2023-12-11 02:17:48.859551181+00:00,-52
2023-12-11 02:17:48.867425196+00:00,-53
2023-12-11 02:17:48.875299212+00:00,-44
2023-12-11 02:17:48.883173228+00:00,-41
2023-12-11 02:17:48.891047244+00:00,-39
2023-12-11 02:17:48.898921259+00:00,-27
2023-12-11 02:17:48.906795275+00:00,-19
2023-12-11 02:17:48.914669291+00:00,-8
2023-12-11 02:17:48.922543307+00:00,3
2023-12-11 02:17:48.930417322+00:00,9
2023-12-11 02:17:48.938291338+00:00,18
2023-12-11 02:17:48.946165354+00:00,26
2023-12-11 02:17:48.954039370+00:00,37
2023-12-11 02:17:48.961913385+00:00,42
2023-12-11 02:17:48.969787401+00:00,45
2023-12-11 02:17:48.977661417+00:00,53
2023-12-11 02:17:48.985535433+00:00,52
2023-12-11 02:17:48.993409448+00:00,47
2023-12-11 02:17:49.001283464+00:00,45
2023-12-11 02:17:49.009157480+00:00,33
2023-12-11 02:17:49.017031496+00:00,23
2023-12-11 02:17:49.024905511+00:00,12
2023-12-11 02:17:49.032779527+00:00,-6
2023-12-11 02:17:49.040653543+00:00,-15
2023-12-11 02:17:49.048527559+00:00,-33
2023-12-11 02:17:49.056401574+00:00,-41
2023-12-11 02:17:49.064275590+00:00,-49
2023-12-11 02:17:49.072149606+00:00,-58
2023-12-11 02:17:49.080023622+00:00,-56
2023-12-11 02:17:49.087897637+00:00,-63
2023-12-11 02:17:49.095771653+00:00,-59
2023-12-11 02:17:49.103645669+00:00,-60
2023-12-11 02:17:49.111519685+00:00,-65
2023-12-11 02:17:49.119393700+00:00,-63
2023-12-11 02:17:49.127267716+00:00,-66
2023-12-11 02:17:49.135141732+00:00,-67
2023-12-11 02:17:49.143015748+00:00,-65
2023-12-11 02:17:49.150889763+00:00,-72
2023-12-11 02:17:49.158763779+00:00,-72
2023-12-11 02:17:49.166637795+00:00,-77
2023-12-11 02:17:49.174511811+00:00,-78
2023-12-11 02:17:49.182385826+00:00,-81
2023-12-11 02:17:49.190259842+00:00,-82
2023-12-11 02:17:49.198133858+00:00,-78
2023-12-11 02:17:49.206007874+00:00,-78
2023-12-11 02:17:49.213881889+00:00,-82
2023-12-11 02:17:49.221755905+00:00,-81
2023-12-11 02:17:49.229629921+00:00,-84
2023-12-11 02:17:49.237503937+00:00,-84
2023-12-11 02:17:49.245377952+00:00,-87
2023-12-11 02:17:49.253251968+00:00,-94
2023-12-11 02:17:49.261125984+00:00,-85
2023-12-11 02:17:49.269000+00:00,-87
2023-12-11 02:17:49.269000+00:00,-84
2023-12-11 02:17:49.276874015+00:00,-85
2023-12-11 02:17:49.284748031+00:00,-86
2023-12-11 02:17:49.292622047+00:00,-84
2023-12-11 02:17:49.300496062+00:00,-85
2023-12-11 02:17:49.308370078+00:00,-84
2023-12-11 02:17:49.316244094+00:00,-77
2023-12-11 02:17:49.324118110+00:00,-79
2023-12-11 02:17:49.331992125+00:00,-74
2023-12-11 02:17:49.339866141+00:00,-77
2023-12-11 02:17:49.347740157+00:00,-70
2023-12-11 02:17:49.355614173+00:00,-57
2023-12-11 02:17:49.363488188+00:00,-50
2023-12-11 02:17:49.371362204+00:00,-49
2023-12-11 02:17:49.379236220+00:00,-52
2023-12-11 02:17:49.387110236+00:00,-53
2023-12-11 02:17:49.394984251+00:00,-42
2023-12-11 02:17:49.402858267+00:00,-44
2023-12-11 02:17:49.410732283+00:00,-55
2023-12-11 02:17:49.418606299+00:00,-66
2023-12-11 02:17:49.426480314+00:00,-84
2023-12-11 02:17:49.434354330+00:00,-89
2023-12-11 02:17:49.442228346+00:00,-92
2023-12-11 02:17:49.450102362+00:00,-95
2023-12-11 02:17:49.457976377+00:00,-120
2023-12-11 02:17:49.465850393+00:00,-122
2023-12-11 02:17:49.473724409+00:00,131
2023-12-11 02:17:49.481598425+00:00,613
2023-12-11 02:17:49.489472440+00:00,584
2023-12-11 02:17:49.497346456+00:00,-39
2023-12-11 02:17:49.505220472+00:00,-174
2023-12-11 02:17:49.513094488+00:00,-157
2023-12-11 02:17:49.520968503+00:00,-106
2023-12-11 02:17:49.528842519+00:00,-100
2023-12-11 02:17:49.536716535+00:00,-97
2023-12-11 02:17:49.544590551+00:00,-107
2023-12-11 02:17:49.552464566+00:00,-101
2023-12-11 02:17:49.560338582+00:00,-96
2023-12-11 02:17:49.568212598+00:00,-98
2023-12-11 02:17:49.576086614+00:00,-91
2023-12-11 02:17:49.583960629+00:00,-92
2023-12-11 02:17:49.591834645+00:00,-92
2023-12-11 02:17:49.599708661+00:00,-85
2023-12-11 02:17:49.607582677+00:00,-86
2023-12-11 02:17:49.615456692+00:00,-78
2023-12-11 02:17:49.623330708+00:00,-84
2023-12-11 02:17:49.631204724+00:00,-79
2023-12-11 02:17:49.639078740+00:00,-69
2023-12-11 02:17:49.646952755+00:00,-68
2023-12-11 02:17:49.654826771+00:00,-63
2023-12-11 02:17:49.662700787+00:00,-62
2023-12-11 02:17:49.670574803+00:00,-58
2023-12-11 02:17:49.678448818+00:00,-48
2023-12-11 02:17:49.686322834+00:00,-51
2023-12-11 02:17:49.694196850+00:00,-47
2023-12-11 02:17:49.702070866+00:00,-39
2023-12-11 02:17:49.709944881+00:00,-32
2023-12-11 02:17:49.717818897+00:00,-21
2023-12-11 02:17:49.725692913+00:00,-15
2023-12-11 02:17:49.733566929+00:00,-4
2023-12-11 02:17:49.741440944+00:00,13
2023-12-11 02:17:49.749314960+00:00,20
2023-12-11 02:17:49.757188976+00:00,34
2023-12-11 02:17:49.765062992+00:00,45
2023-12-11 02:17:49.772937007+00:00,49
2023-12-11 02:17:49.780811023+00:00,56
2023-12-11 02:17:49.788685039+00:00,47
2023-12-11 02:17:49.796559055+00:00,44
2023-12-11 02:17:49.804433070+00:00,39
2023-12-11 02:17:49.812307086+00:00,31
2023-12-11 02:17:49.820181102+00:00,21
2023-12-11 02:17:49.828055118+00:00,6
2023-12-11 02:17:49.835929133+00:00,-2
2023-12-11 02:17:49.843803149+00:00,-19
2023-12-11 02:17:49.851677165+00:00,-34
2023-12-11 02:17:49.859551181+00:00,-33
2023-12-11 02:17:49.867425196+00:00,-50
2023-12-11 02:17:49.875299212+00:00,-55
2023-12-11 02:17:49.883173228+00:00,-54
2023-12-11 02:17:49.891047244+00:00,-60
2023-12-11 02:17:49.898921259+00:00,-58
2023-12-11 02:17:49.906795275+00:00,-62
2023-12-11 02:17:49.914669291+00:00,-63
2023-12-11 02:17:49.922543307+00:00,-62
2023-12-11 02:17:49.930417322+00:00,-66
2023-12-11 02:17:49.938291338+00:00,-61
2023-12-11 02:17:49.946165354+00:00,-63
2023-12-11 02:17:49.954039370+00:00,-69
2023-12-11 02:17:49.961913385+00:00,-66
2023-12-11 02:17:49.969787401+00:00,-69
2023-12-11 02:17:49.977661417+00:00,-66
2023-12-11 02:17:49.985535433+00:00,-74
2023-12-11 02:17:49.993409448+00:00,-76
2023-12-11 02:17:50.001283464+00:00,-75
2023-12-11 02:17:50.009157480+00:00,-80
2023-12-11 02:17:50.017031496+00:00,-78
2023-12-11 02:17:50.024905511+00:00,-78
2023-12-11 02:17:50.032779527+00:00,-79
2023-12-11 02:17:50.040653543+00:00,-75
2023-12-11 02:17:50.048527559+00:00,-80
2023-12-11 02:17:50.056401574+00:00,-75
2023-12-11 02:17:50.064275590+00:00,-75
2023-12-11 02:17:50.072149606+00:00,-80
2023-12-11 02:17:50.080023622+00:00,-74
2023-12-11 02:17:50.087897637+00:00,-76
2023-12-11 02:17:50.095771653+00:00,-76
2023-12-11 02:17:50.103645669+00:00,-76
2023-12-11 02:17:50.111519685+00:00,-81
2023-12-11 02:17:50.119393700+00:00,-78
2023-12-11 02:17:50.127267716+00:00,-77
2023-12-11 02:17:50.135141732+00:00,-86
2023-12-11 02:17:50.143015748+00:00,-77
2023-12-11 02:17:50.150889763+00:00,-85
2023-12-11 02:17:50.158763779+00:00,-72
2023-12-11 02:17:50.166637795+00:00,-57
2023-12-11 02:17:50.174511811+00:00,-55
2023-12-11 02:17:50.182385826+00:00,-48
2023-12-11 02:17:50.190259842+00:00,-57
2023-12-11 02:17:50.198133858+00:00,-54
2023-12-11 02:17:50.206007874+00:00,-42
2023-12-11 02:17:50.213881889+00:00,-44
2023-12-11 02:17:50.221755905+00:00,-50
2023-12-11 02:17:50.229629921+00:00,-61
2023-12-11 02:17:50.237503937+00:00,-70
2023-12-11 02:17:50.245377952+00:00,-82
2023-12-11 02:17:50.253251968+00:00,-91
2023-12-11 02:17:50.261125984+00:00,-86
2023-12-11 02:17:50.269000+00:00,-110
2023-12-11 02:17:50.269000+00:00,-116
2023-12-11 02:17:50.276874015+00:00,96
2023-12-11 02:17:50.284748031+00:00,595
2023-12-11 02:17:50.292622047+00:00,682
2023-12-11 02:17:50.300496062+00:00,25
2023-12-11 02:17:50.308370078+00:00,-164
2023-12-11 02:17:50.316244094+00:00,-180
2023-12-11 02:17:50.324118110+00:00,-116
2023-12-11 02:17:50.331992125+00:00,-96
2023-12-11 02:17:50.339866141+00:00,-93
2023-12-11 02:17:50.347740157+00:00,-98
2023-12-11 02:17:50.355614173+00:00,-82
2023-12-11 02:17:50.363488188+00:00,-87
2023-12-11 02:17:50.371362204+00:00,-83
2023-12-11 02:17:50.379236220+00:00,-83
2023-12-11 02:17:50.387110236+00:00,-78
2023-12-11 02:17:50.394984251+00:00,-76
2023-12-11 02:17:50.402858267+00:00,-79
2023-12-11 02:17:50.410732283+00:00,-74
2023-12-11 02:17:50.418606299+00:00,-68
2023-12-11 02:17:50.426480314+00:00,-71
2023-12-11 02:17:50.434354330+00:00,-60
2023-12-11 02:17:50.442228346+00:00,-58
2023-12-11 02:17:50.450102362+00:00,-59
2023-12-11 02:17:50.457976377+00:00,-54
2023-12-11 02:17:50.465850393+00:00,-53
2023-12-11 02:17:50.473724409+00:00,-50
2023-12-11 02:17:50.481598425+00:00,-43
2023-12-11 02:17:50.489472440+00:00,-42
2023-12-11 02:17:50.497346456+00:00,-31
2023-12-11 02:17:50.505220472+00:00,-29
2023-12-11 02:17:50.513094488+00:00,-19
2023-12-11 02:17:50.520968503+00:00,-11
2023-12-11 02:17:50.528842519+00:00,-2
2023-12-11 02:17:50.536716535+00:00,15
2023-12-11 02:17:50.544590551+00:00,23
2023-12-11 02:17:50.552464566+00:00,41
2023-12-11 02:17:50.560338582+00:00,51
2023-12-11 02:17:50.568212598+00:00,60
2023-12-11 02:17:50.576086614+00:00,75
2023-12-11 02:17:50.583960629+00:00,76
2023-12-11 02:17:50.591834645+00:00,68
2023-12-11 02:17:50.599708661+00:00,71
2023-12-11 02:17:50.607582677+00:00,60
2023-12-11 02:17:50.615456692+00:00,61
2023-12-11 02:17:50.623330708+00:00,45
2023-12-11 02:17:50.631204724+00:00,28
2023-12-11 02:17:50.639078740+00:00,21
2023-12-11 02:17:50.646952755+00:00,6
2023-12-11 02:17:50.654826771+00:00,-2
2023-12-11 02:17:50.662700787+00:00,-10
2023-12-11 02:17:50.670574803+00:00,-23
2023-12-11 02:17:50.678448818+00:00,-21
2023-12-11 02:17:50.686322834+00:00,-26
2023-12-11 02:17:50.694196850+00:00,-25
2023-12-11 02:17:50.702070866+00:00,-28
2023-12-11 02:17:50.709944881+00:00,-34
2023-12-11 02:17:50.717818897+00:00,-30
2023-12-11 02:17:50.725692913+00:00,-32
2023-12-11 02:17:50.733566929+00:00,-34
2023-12-11 02:17:50.741440944+00:00,-29
2023-12-11 02:17:50.749314960+00:00,-38
2023-12-11 02:17:50.757188976+00:00,-35
2023-12-11 02:17:50.765062992+00:00,-38
2023-12-11 02:17:50.772937007+00:00,-39
2023-12-11 02:17:50.780811023+00:00,-36
2023-12-11 02:17:50.788685039+00:00,-40
2023-12-11 02:17:50.796559055+00:00,-41
2023-12-11 02:17:50.804433070+00:00,-40
2023-12-11 02:17:50.812307086+00:00,-41
2023-12-11 02:17:50.820181102+00:00,-41
2023-12-11 02:17:50.828055118+00:00,-45
2023-12-11 02:17:50.835929133+00:00,-47
2023-12-11 02:17:50.843803149+00:00,-47
2023-12-11 02:17:50.851677165+00:00,-50
2023-12-11 02:17:50.859551181+00:00,-46
2023-12-11 02:17:50.867425196+00:00,-46
2023-12-11 02:17:50.875299212+00:00,-50
2023-12-11 02:17:50.883173228+00:00,-45
2023-12-11 02:17:50.891047244+00:00,-48
2023-12-11 02:17:50.898921259+00:00,-48
2023-12-11 02:17:50.906795275+00:00,-46
2023-12-11 02:17:50.914669291+00:00,-48
2023-12-11 02:17:50.922543307+00:00,-42
2023-12-11 02:17:50.930417322+00:00,-47
2023-12-11 02:17:50.938291338+00:00,-45
2023-12-11 02:17:50.946165354+00:00,-47
2023-12-11 02:17:50.954039370+00:00,-46
2023-12-11 02:17:50.961913385+00:00,-37
2023-12-11 02:17:50.969787401+00:00,-28
2023-12-11 02:17:50.977661417+00:00,-17
2023-12-11 02:17:50.985535433+00:00,-10
2023-12-11 02:17:50.993409448+00:00,-13
2023-12-11 02:17:51.001283464+00:00,-16
2023-12-11 02:17:51.009157480+00:00,-12
2023-12-11 02:17:51.017031496+00:00,-6
2023-12-11 02:17:51.024905511+00:00,-6
2023-12-11 02:17:51.032779527+00:00,-25
2023-12-11 02:17:51.040653543+00:00,-27
2023-12-11 02:17:51.048527559+00:00,-44
2023-12-11 02:17:51.056401574+00:00,-55
2023-12-11 02:17:51.064275590+00:00,-55
2023-12-11 02:17:51.072149606+00:00,-66
2023-12-11 02:17:51.080023622+00:00,-94
2023-12-11 02:17:51.087897637+00:00,13
2023-12-11 02:17:51.095771653+00:00,433
2023-12-11 02:17:51.103645669+00:00,704
2023-12-11 02:17:51.111519685+00:00,214
2023-12-11 02:17:51.119393700+00:00,-111
2023-12-11 02:17:51.127267716+00:00,-132
2023-12-11 02:17:51.135141732+00:00,-84
2023-12-11 02:17:51.143015748+00:00,-56
2023-12-11 02:17:51.150889763+00:00,-57
2023-12-11 02:17:51.158763779+00:00,-58
2023-12-11 02:17:51.166637795+00:00,-53
2023-12-11 02:17:51.174511811+00:00,-54
2023-12-11 02:17:51.182385826+00:00,-48
2023-12-11 02:17:51.190259842+00:00,-47
2023-12-11 02:17:51.198133858+00:00,-44
2023-12-11 02:17:51.206007874+00:00,-41
2023-12-11 02:17:51.213881889+00:00,-43
2023-12-11 02:17:51.221755905+00:00,-35
2023-12-11 02:17:51.229629921+00:00,-32
2023-12-11 02:17:51.237503937+00:00,-34
2023-12-11 02:17:51.245377952+00:00,-25
2023-12-11 02:17:51.253251968+00:00,-26
2023-12-11 02:17:51.261125984+00:00,-22
2023-12-11 02:17:51.269000+00:00,-19
2023-12-11 02:17:51.269000+00:00,-17
2023-12-11 02:17:51.276874015+00:00,-16
2023-12-11 02:17:51.284748031+00:00,-18
2023-12-11 02:17:51.292622047+00:00,-17
2023-12-11 02:17:51.300496062+00:00,-5
2023-12-11 02:17:51.308370078+00:00,-1
2023-12-11 02:17:51.316244094+00:00,8
2023-12-11 02:17:51.324118110+00:00,16
2023-12-11 02:17:51.331992125+00:00,22
2023-12-11 02:17:51.339866141+00:00,37
2023-12-11 02:17:51.347740157+00:00,49
2023-12-11 02:17:51.355614173+00:00,59
2023-12-11 02:17:51.363488188+00:00,70
2023-12-11 02:17:51.371362204+00:00,76
2023-12-11 02:17:51.379236220+00:00,85
2023-12-11 02:17:51.387110236+00:00,84
2023-12-11 02:17:51.394984251+00:00,89
2023-12-11 02:17:51.402858267+00:00,86
2023-12-11 02:17:51.410732283+00:00,78
2023-12-11 02:17:51.418606299+00:00,77
2023-12-11 02:17:51.426480314+00:00,60
2023-12-11 02:17:51.434354330+00:00,48
2023-12-11 02:17:51.442228346+00:00,37
2023-12-11 02:17:51.450102362+00:00,20
2023-12-11 02:17:51.457976377+00:00,14
2023-12-11 02:17:51.465850393+00:00,4
2023-12-11 02:17:51.473724409+00:00,-4
2023-12-11 02:17:51.481598425+00:00,-4
2023-12-11 02:17:51.489472440+00:00,-17
2023-12-11 02:17:51.497346456+00:00,-22
2023-12-11 02:17:51.505220472+00:00,-23
2023-12-11 02:17:51.513094488+00:00,-26
2023-12-11 02:17:51.520968503+00:00,-24
2023-12-11 02:17:51.528842519+00:00,-26
2023-12-11 02:17:51.536716535+00:00,-28
2023-12-11 02:17:51.544590551+00:00,-30
2023-12-11 02:17:51.552464566+00:00,-33
2023-12-11 02:17:51.560338582+00:00,-29
2023-12-11 02:17:51.568212598+00:00,-33
2023-12-11 02:17:51.576086614+00:00,-34
2023-12-11 02:17:51.583960629+00:00,-40
2023-12-11 02:17:51.591834645+00:00,-40
2023-12-11 02:17:51.599708661+00:00,-39
2023-12-11 02:17:51.607582677+00:00,-45
2023-12-11 02:17:51.615456692+00:00,-48
2023-12-11 02:17:51.623330708+00:00,-44
2023-12-11 02:17:51.631204724+00:00,-48
2023-12-11 02:17:51.639078740+00:00,-44
2023-12-11 02:17:51.646952755+00:00,-43
2023-12-11 02:17:51.654826771+00:00,-44
2023-12-11 02:17:51.662700787+00:00,-42
2023-12-11 02:17:51.670574803+00:00,-50
2023-12-11 02:17:51.678448818+00:00,-43
2023-12-11 02:17:51.686322834+00:00,-44
2023-12-11 02:17:51.694196850+00:00,-48
2023-12-11 02:17:51.702070866+00:00,-43
2023-12-11 02:17:51.709944881+00:00,-41
2023-12-11 02:17:51.717818897+00:00,-43
2023-12-11 02:17:51.725692913+00:00,-42
2023-12-11 02:17:51.733566929+00:00,-48
2023-12-11 02:17:51.741440944+00:00,-46
2023-12-11 02:17:51.749314960+00:00,-42
2023-12-11 02:17:51.757188976+00:00,-45
2023-12-11 02:17:51.765062992+00:00,-33
2023-12-11 02:17:51.772937007+00:00,-29
2023-12-11 02:17:51.780811023+00:00,-13
2023-12-11 02:17:51.788685039+00:00,-7
2023-12-11 02:17:51.796559055+00:00,-13
2023-12-11 02:17:51.804433070+00:00,-12
2023-12-11 02:17:51.812307086+00:00,-11
2023-12-11 02:17:51.820181102+00:00,-2
2023-12-11 02:17:51.828055118+00:00,-10
2023-12-11 02:17:51.835929133+00:00,-23
2023-12-11 02:17:51.843803149+00:00,-34
2023-12-11 02:17:51.851677165+00:00,-53
2023-12-11 02:17:51.859551181+00:00,-53
2023-12-11 02:17:51.867425196+00:00,-54
2023-12-11 02:17:51.875299212+00:00,-72
2023-12-11 02:17:51.883173228+00:00,-97
2023-12-11 02:17:51.891047244+00:00,40
2023-12-11 02:17:51.898921259+00:00,465
2023-12-11 02:17:51.906795275+00:00,670
2023-12-11 02:17:51.914669291+00:00,145
2023-12-11 02:17:51.922543307+00:00,-116
2023-12-11 02:17:51.930417322+00:00,-118
2023-12-11 02:17:51.938291338+00:00,-75
2023-12-11 02:17:51.946165354+00:00,-59
2023-12-11 02:17:51.954039370+00:00,-70
2023-12-11 02:17:51.961913385+00:00,-67
2023-12-11 02:17:51.969787401+00:00,-65
2023-12-11 02:17:51.977661417+00:00,-56
2023-12-11 02:17:51.985535433+00:00,-56
2023-12-11 02:17:51.993409448+00:00,-57
2023-12-11 02:17:52.001283464+00:00,-52
2023-12-11 02:17:52.009157480+00:00,-54
2023-12-11 02:17:52.017031496+00:00,-53
2023-12-11 02:17:52.024905511+00:00,-50
2023-12-11 02:17:52.032779527+00:00,-47
2023-12-11 02:17:52.040653543+00:00,-43
2023-12-11 02:17:52.048527559+00:00,-42
2023-12-11 02:17:52.056401574+00:00,-43
2023-12-11 02:17:52.064275590+00:00,-33
2023-12-11 02:17:52.072149606+00:00,-35
2023-12-11 02:17:52.080023622+00:00,-31
2023-12-11 02:17:52.087897637+00:00,-22
2023-12-11 02:17:52.095771653+00:00,-24
2023-12-11 02:17:52.103645669+00:00,-17
2023-12-11 02:17:52.111519685+00:00,-12
2023-12-11 02:17:52.119393700+00:00,-12
2023-12-11 02:17:52.127267716+00:00,5
2023-12-11 02:17:52.135141732+00:00,8
2023-12-11 02:17:52.143015748+00:00,18
2023-12-11 02:17:52.150889763+00:00,26
2023-12-11 02:17:52.158763779+00:00,34
2023-12-11 02:17:52.166637795+00:00,51
2023-12-11 02:17:52.174511811+00:00,56
2023-12-11 02:17:52.182385826+00:00,69
2023-12-11 02:17:52.190259842+00:00,72
2023-12-11 02:17:52.198133858+00:00,71
2023-12-11 02:17:52.206007874+00:00,73
2023-12-11 02:17:52.213881889+00:00,65
2023-12-11 02:17:52.221755905+00:00,65
2023-12-11 02:17:52.229629921+00:00,62
2023-12-11 02:17:52.237503937+00:00,50
2023-12-11 02:17:52.245377952+00:00,43
2023-12-11 02:17:52.253251968+00:00,26
2023-12-11 02:17:52.261125984+00:00,13
2023-12-11 02:17:52.269000+00:00,8
2023-12-11 02:17:52.269000+00:00,-3
2023-12-11 02:17:52.276874015+00:00,-14
2023-12-11 02:17:52.284748031+00:00,-16
2023-12-11 02:17:52.292622047+00:00,-24
2023-12-11 02:17:52.300496062+00:00,-23
2023-12-11 02:17:52.308370078+00:00,-24
2023-12-11 02:17:52.316244094+00:00,-23
2023-12-11 02:17:52.324118110+00:00,-27
2023-12-11 02:17:52.331992125+00:00,-33
2023-12-11 02:17:52.339866141+00:00,-26
2023-12-11 02:17:52.347740157+00:00,-26
2023-12-11 02:17:52.355614173+00:00,-26
2023-12-11 02:17:52.363488188+00:00,-25
2023-12-11 02:17:52.371362204+00:00,-31
2023-12-11 02:17:52.379236220+00:00,-30
2023-12-11 02:17:52.387110236+00:00,-36
2023-12-11 02:17:52.394984251+00:00,-36
2023-12-11 02:17:52.402858267+00:00,-37
2023-12-11 02:17:52.410732283+00:00,-43
2023-12-11 02:17:52.418606299+00:00,-43
2023-12-11 02:17:52.426480314+00:00,-44
2023-12-11 02:17:52.434354330+00:00,-51
2023-12-11 02:17:52.442228346+00:00,-49
2023-12-11 02:17:52.450102362+00:00,-51
2023-12-11 02:17:52.457976377+00:00,-50
2023-12-11 02:17:52.465850393+00:00,-49
2023-12-11 02:17:52.473724409+00:00,-55
2023-12-11 02:17:52.481598425+00:00,-48
2023-12-11 02:17:52.489472440+00:00,-52
2023-12-11 02:17:52.497346456+00:00,-51
2023-12-11 02:17:52.505220472+00:00,-44
2023-12-11 02:17:52.513094488+00:00,-53
2023-12-11 02:17:52.520968503+00:00,-47
2023-12-11 02:17:52.528842519+00:00,-51
2023-12-11 02:17:52.536716535+00:00,-52
2023-12-11 02:17:52.544590551+00:00,-50
2023-12-11 02:17:52.552464566+00:00,-52
2023-12-11 02:17:52.560338582+00:00,-48
2023-12-11 02:17:52.568212598+00:00,-43
2023-12-11 02:17:52.576086614+00:00,-30
2023-12-11 02:17:52.583960629+00:00,-22
2023-12-11 02:17:52.591834645+00:00,-18
2023-12-11 02:17:52.599708661+00:00,-20
2023-12-11 02:17:52.607582677+00:00,-23
2023-12-11 02:17:52.615456692+00:00,-17
2023-12-11 02:17:52.623330708+00:00,-10
2023-12-11 02:17:52.631204724+00:00,-17
2023-12-11 02:17:52.639078740+00:00,-30
2023-12-11 02:17:52.646952755+00:00,-35
2023-12-11 02:17:52.654826771+00:00,-57
2023-12-11 02:17:52.662700787+00:00,-58
2023-12-11 02:17:52.670574803+00:00,-56
2023-12-11 02:17:52.678448818+00:00,-71
2023-12-11 02:17:52.686322834+00:00,-100
2023-12-11 02:17:52.694196850+00:00,26
2023-12-11 02:17:52.702070866+00:00,495
2023-12-11 02:17:52.709944881+00:00,757
2023-12-11 02:17:52.717818897+00:00,179
2023-12-11 02:17:52.725692913+00:00,-140
2023-12-11 02:17:52.733566929+00:00,-165
2023-12-11 02:17:52.741440944+00:00,-104
2023-12-11 02:17:52.749314960+00:00,-77
2023-12-11 02:17:52.757188976+00:00,-82
2023-12-11 02:17:52.765062992+00:00,-74
2023-12-11 02:17:52.772937007+00:00,-77
2023-12-11 02:17:52.780811023+00:00,-69
2023-12-11 02:17:52.788685039+00:00,-63
2023-12-11 02:17:52.796559055+00:00,-67
2023-12-11 02:17:52.804433070+00:00,-55
2023-12-11 02:17:52.812307086+00:00,-57
2023-12-11 02:17:52.820181102+00:00,-53
2023-12-11 02:17:52.828055118+00:00,-53
2023-12-11 02:17:52.835929133+00:00,-48
2023-12-11 02:17:52.843803149+00:00,-45
2023-12-11 02:17:52.851677165+00:00,-44
2023-12-11 02:17:52.859551181+00:00,-39
2023-12-11 02:17:52.867425196+00:00,-40
2023-12-11 02:17:52.875299212+00:00,-35
2023-12-11 02:17:52.883173228+00:00,-30
2023-12-11 02:17:52.891047244+00:00,-26
2023-12-11 02:17:52.898921259+00:00,-24
2023-12-11 02:17:52.906795275+00:00,-15
2023-12-11 02:17:52.914669291+00:00,-20
2023-12-11 02:17:52.922543307+00:00,-6
2023-12-11 02:17:52.930417322+00:00,3
2023-12-11 02:17:52.938291338+00:00,9
2023-12-11 02:17:52.946165354+00:00,27
2023-12-11 02:17:52.954039370+00:00,35
2023-12-11 02:17:52.961913385+00:00,49
2023-12-11 02:17:52.969787401+00:00,62
2023-12-11 02:17:52.977661417+00:00,71
2023-12-11 02:17:52.985535433+00:00,84
2023-12-11 02:17:52.993409448+00:00,84
