TIMESTAMP_MS,COUNTER,DEVICE_ID,PULSE_BPM,SPO2_PCT,SPO2_STATUS,PLETH,BATTERY_PCT,RED_ADC,IR_ADC,PERFUSION_INDEX
0,9,4,97,100,0,7216,100,230172,275023,1.8
10,10,4,97,100,0,7300,100,229823,274057,1.8
20,11,4,97,100,0,7885,100,229554,273375,1.8
30,12,4,97,100,0,9154,100,229371,272920,1.8
40,13,4,97,100,0,11153,100,229294,272723,1.8
50,14,4,97,100,0,14019,100,229317,272717,1.8
60,15,4,97,100,0,17755,100,229364,272803,1.8
70,16,4,97,100,0,22273,100,229388,272930,1.8
80,17,4,97,100,0,27443,100,229461,273065,1.8
90,18,4,97,100,0,32997,100,229507,273191,1.8
100,19,4,97,100,0,38755,100,229528,273263,1.8
110,20,4,97,100,0,44435,100,229493,273297,1.8
120,21,4,97,100,0,49754,100,229507,273270,1.8
130,22,4,97,100,0,54568,100,229506,273244,1.8
140,23,4,97,100,0,58640,100,229481,273237,1.8
150,24,4,97,100,0,61922,100,229540,273385,1.8
160,25,4,97,100,0,62258,100,229628,273528,1.8
170,26,4,97,100,0,62258,100,229637,273712,1.8
180,27,4,97,100,0,61980,100,229748,273975,1.8
190,28,4,97,100,0,61631,100,229873,274333,1.8
200,29,4,97,100,8,61044,100,229938,274563,1.8
210,30,4,97,100,0,59949,100,229967,274711,1.8
220,31,4,97,100,0,58386,100,229975,274737,1.8
230,32,4,97,100,0,56471,100,230002,274722,1.8
240,33,4,97,100,0,54245,100,229929,274622,1.8
250,34,4,97,100,0,51823,100,229946,274619,1.8
260,35,4,97,100,0,49321,100,229937,274576,1.8
270,36,4,97,100,0,46858,100,229921,274574,1.8
280,37,4,97,100,0,44510,100,229919,274675,1.8
290,38,4,97,100,0,42394,100,230007,274757,1.8
300,39,4,97,100,0,40511,100,230017,274869,1.8
310,40,4,97,100,0,38901,100,230085,275081,1.8
320,41,4,97,100,0,37563,100,230143,275215,1.8
330,42,4,97,100,0,36499,100,230207,275374,1.8
340,43,4,97,100,0,35671,100,230224,275584,1.8
350,44,4,97,100,0,34998,100,230317,275811,1.8
360,45,4,97,100,0,34444,100,230368,275947,1.8
370,46,4,97,100,0,33927,100,230446,276110,1.8
380,47,4,97,100,0,33368,100,230495,276251,1.8
390,48,4,97,100,0,32767,100,230574,276411,1.8
400,49,4,97,100,0,32083,100,230590,276494,1.8
410,50,4,97,100,0,31316,100,230634,276650,1.8
420,51,4,97,100,0,30344,100,230677,276731,1.8
430,52,4,97,100,0,29248,100,230703,276798,1.8
440,53,4,97,100,0,28067,100,230711,276881,1.8
450,54,4,97,100,0,26720,100,230756,276965,1.8
460,55,4,97,100,0,25288,100,230776,277031,1.8
470,56,4,97,100,0,23853,100,230794,277096,1.8
480,57,4,97,100,0,22414,100,230827,277142,1.8
490,58,4,97,100,0,21055,100,230837,277261,1.8
500,59,4,97,100,0,19734,100,230887,277336,1.8
510,60,4,97,100,0,18494,100,230902,277455,1.8
520,61,4,97,100,0,17374,100,230997,277572,1.8
530,62,4,97,100,0,16336,100,231059,277759,1.8
540,63,4,97,100,0,15420,100,231113,277929,1.8
550,64,4,97,100,0,14586,100,231135,278044,1.8
560,65,4,97,100,0,13833,100,231209,278117,1.8
570,66,4,97,100,0,13122,100,231237,278175,1.8
580,67,4,97,100,0,12410,100,231220,278135,1.8
590,68,4,97,100,0,11740,100,231134,277897,1.8
600,69,4,97,100,0,11152,100,230853,277266,1.8
610,70,4,97,100,0,10564,100,230549,276496,1.8
620,71,4,97,100,0,10142,100,230161,275500,1.8
630,72,4,97,100,0,9925,100,229789,274513,1.8
640,73,4,97,100,0,10121,100,229475,273670,1.8
650,74,4,97,100,0,10852,100,229244,273112,1.8
660,75,4,97,100,0,12202,100,229114,272791,1.8
670,76,4,97,100,0,14336,100,229126,272697,1.8
680,77,4,97,100,0,17298,100,229168,272813,1.8
690,78,4,97,100,0,21007,100,229207,272961,1.8
700,79,4,97,100,0,25344,100,229239,273051,1.8
710,80,4,97,100,0,30150,100,229324,273270,1.8
720,81,4,97,100,0,35222,100,229365,273318,1.8
730,82,4,97,100,0,40353,100,229376,273346,1.8
740,83,4,97,100,0,45287,100,229338,273355,1.8
750,84,4,97,100,0,49809,100,229365,273413,1.8
760,85,4,97,100,0,53791,100,229378,273392,1.8
770,86,4,97,100,0,57060,100,229405,273478,1.8
780,87,4,97,100,0,59575,100,229457,273645,1.8
790,88,4,97,100,0,61291,100,229533,273876,1.8
800,89,4,97,100,0,62133,100,229611,274139,1.8
810,90,4,97,100,0,61768,100,229740,274512,1.8
820,91,4,97,100,8,61361,100,229812,274755,1.8
830,92,4,97,100,0,60342,100,229924,274981,1.8
840,93,4,97,100,0,58713,100,229986,275017,1.8
850,94,4,97,100,0,56678,100,229965,275095,1.8
860,95,4,97,100,0,54317,100,229921,274960,1.8
870,96,4,97,100,0,51672,100,229912,274881,1.8
880,97,4,97,100,0,48944,100,229883,274845,1.8
890,98,4,97,100,0,46214,100,229890,274859,1.8
900,99,4,97,100,0,43562,100,229921,274889,1.8
910,100,4,97,100,0,41111,100,229944,275027,1.8
920,101,4,97,100,0,38942,100,229987,275144,1.8
930,102,4,97,100,0,37055,100,230053,275319,1.8
940,103,4,97,100,0,35534,100,230094,275440,1.8
950,104,4,97,100,0,34298,100,230171,275674,1.8
960,105,4,97,100,0,33347,100,230185,275845,1.8
970,106,4,97,100,0,32601,100,230316,276073,1.8
980,107,4,97,100,0,31976,100,230372,276218,1.8
990,108,4,97,100,0,31432,100,230390,276380,1.8
1000,109,4,97,100,0,30887,100,230462,276536,1.8
1010,110,4,97,100,0,30297,100,230576,276721,1.8
1020,111,4,97,100,0,29622,100,230595,276864,1.8
1030,112,4,97,100,0,28860,100,230634,276970,1.8
1040,113,4,97,100,0,27970,100,230677,277090,1.8
1050,114,4,97,100,0,26867,100,230733,277240,1.8
1060,115,4,97,100,0,25591,100,230743,277249,1.8
1070,116,4,97,100,0,24186,100,230796,277353,1.8
1080,117,4,97,100,0,22735,100,230820,277393,1.8
1090,118,4,97,100,0,21154,100,230886,277542,1.8
1100,119,4,97,100,0,19656,100,230849,277505,1.8
1110,120,4,97,100,0,18156,100,230898,277612,1.8
1120,121,4,97,100,0,16654,100,230920,277719,1.8
1130,122,4,97,100,0,15279,100,230983,277813,1.8
1140,123,4,97,100,0,14031,100,231033,277950,1.8
1150,124,4,97,100,0,12910,100,231092,278060,1.8
1160,125,4,97,100,0,11917,100,231091,278151,1.8
1170,126,4,97,100,0,11053,100,231163,278290,1.8
1180,127,4,97,100,0,10274,100,231227,278440,1.8
1190,128,4,97,100,0,9581,100,231285,278625,1.8
1200,129,4,97,100,0,8930,100,231305,278702,1.8
1210,130,4,97,100,0,8366,100,231356,278788,1.8
1220,131,4,97,100,0,7845,100,231380,278807,1.8
1230,132,4,97,100,0,7239,100,231368,278802,1.8
1240,133,4,97,100,0,6677,100,231258,278435,1.8
1250,134,4,97,100,0,6115,100,231007,277831,1.8
1260,135,4,97,100,0,5597,100,230644,276930,1.8
1270,136,4,97,100,0,5208,100,230305,275913,1.8
1280,137,4,97,100,0,5119,100,229862,274889,1.8
1290,138,4,97,100,0,5457,100,229593,274125,1.8
1300,139,4,97,100,0,6351,100,229363,273540,1.8
1310,140,4,97,100,0,7970,100,229295,273291,1.8
1320,141,4,97,100,0,10444,100,229249,273211,1.8
1330,142,4,97,100,0,13774,100,229289,273296,1.8
1340,143,4,97,100,0,17833,100,229357,273404,1.8
1350,144,4,97,100,0,22584,100,229436,273600,1.8
1360,145,4,97,100,0,27861,100,229450,273662,1.8
1370,146,4,97,100,0,33371,100,229507,273779,1.8
1380,147,4,97,100,0,38900,100,229481,273816,1.8
1390,148,4,97,100,0,44183,100,229551,273867,1.8
1400,149,4,97,100,0,48999,100,229543,273890,1.8
1410,150,4,97,100,0,53254,100,229535,273923,1.8
1420,151,4,97,100,0,56773,100,229597,274008,1.8
1430,152,4,97,100,0,59422,100,229630,274234,1.8
1440,153,4,97,100,0,61288,100,229721,274447,1.8
1450,154,4,97,100,0,62258,100,229831,274752,1.8
1460,155,4,97,100,0,62258,100,229937,275057,1.8
1470,156,4,97,100,8,61657,100,230068,275341,1.8
1480,157,4,97,100,0,60413,100,230090,275525,1.8
1490,158,4,97,100,0,58655,100,230134,275541,1.8
1500,159,4,97,100,0,56341,100,230125,275472,1.8
1510,160,4,97,100,0,53685,100,230103,275426,1.8
1520,161,4,97,100,0,50814,100,230067,275413,1.8
1530,162,4,97,100,0,47813,100,230041,275317,1.8
1540,163,4,97,100,0,44852,100,229999,275353,1.8
1550,164,4,97,100,0,42015,100,230052,275406,1.8
1560,165,4,97,100,0,39432,100,230118,275519,1.8
1570,166,4,97,100,0,37102,100,230165,275647,1.8
1580,167,4,97,100,0,35199,100,230250,275846,1.8
1590,168,4,97,100,0,33594,100,230299,275999,1.8
1600,169,4,97,100,0,32331,100,230357,276197,1.8
1610,170,4,97,100,0,31369,100,230446,276370,1.8
1620,171,4,97,100,0,30623,100,230490,276544,1.8
1630,172,4,97,100,0,30005,100,230544,276698,1.8
1640,173,4,97,100,0,29517,100,230581,276881,1.8
1650,174,4,97,100,0,28983,100,230666,277046,1.8
1660,175,4,97,100,0,28448,100,230698,277150,1.8
1670,176,4,97,100,0,27778,100,230792,277300,1.8
1680,177,4,97,100,0,27019,100,230799,277431,1.8
1690,178,4,97,100,0,26124,100,230868,277586,1.8
1700,179,4,97,100,0,25005,100,230883,277639,1.8
1710,180,4,97,100,0,23750,100,230939,277716,1.8
1720,181,4,97,100,0,22360,100,230969,277820,1.8
1730,182,4,97,100,0,20833,100,231003,277890,1.8
1740,183,4,97,100,0,19304,100,231013,277939,1.8
1750,184,4,97,100,0,17728,100,231043,278049,1.8
1760,185,4,97,100,0,16196,100,231075,278087,1.8
1770,186,4,97,100,0,14708,100,231095,278180,1.8
1780,187,4,97,100,0,13353,100,231144,278322,1.8
1790,188,4,97,100,0,12088,100,231201,278350,1.8
1800,189,4,97,100,0,10957,100,231262,278543,1.8
1810,190,4,97,100,0,9961,100,231289,278597,1.8
1820,191,4,97,100,0,9100,100,231342,278752,1.8
1830,192,4,97,100,0,8284,100,231405,278926,1.8
1840,193,4,97,100,0,7559,100,231438,279028,1.8
1850,194,4,97,100,0,6924,100,231483,279152,1.8
1860,195,4,97,100,0,6335,100,231509,279184,1.8
1870,196,4,97,100,0,5746,100,231511,279196,1.8
1880,197,4,97,100,0,5159,100,231414,279020,1.8
1890,198,4,97,100,0,4617,100,231246,278559,1.8
1900,199,4,97,100,0,4076,100,230969,277839,1.8
1910,200,4,97,100,0,3626,100,230658,276922,1.8
1920,201,4,97,100,0,3445,100,230261,275952,1.8
1930,202,4,97,100,0,3534,100,229924,275045,1.8
1940,203,4,97,100,0,4161,100,229661,274348,1.8
1950,204,4,97,100,0,5415,100,229515,273912,1.8
1960,205,4,97,100,0,7430,100,229451,273685,1.8
1970,206,4,97,100,0,10295,100,229446,273715,1.8
1980,207,4,97,100,0,14057,100,229492,273815,1.8
1990,208,4,97,100,0,18586,100,229540,273955,1.8
2000,209,4,97,100,0,23706,100,229590,274099,1.8
2010,210,4,97,100,0,29245,100,229659,274241,1.8
2020,211,4,97,100,0,34893,100,229692,274317,1.8
2030,212,4,97,100,0,40560,100,229731,274384,1.8
2040,213,4,97,100,0,45786,100,229747,274415,1.8
2050,214,4,97,100,0,50519,100,229778,274470,1.8
2060,215,4,97,100,0,54526,100,229755,274569,1.8
2070,216,4,97,100,0,57669,100,229849,274688,1.8
2080,217,4,97,100,0,59946,100,229923,274884,1.8
2090,218,4,97,100,0,61311,100,229994,275145,1.8
2100,219,4,97,100,0,61671,100,230086,275508,1.8
2110,220,4,97,100,0,61271,100,230210,275776,1.8
2120,221,4,97,100,8,60286,100,230248,275955,1.8
2130,222,4,97,100,0,58675,100,230296,276053,1.8
2140,223,4,97,100,0,56437,100,230329,276054,1.8
2150,224,4,97,100,0,53888,100,230286,275974,1.8
2160,225,4,97,100,0,50979,100,230281,275942,1.8
2170,226,4,97,100,0,47980,100,230239,275897,1.8
2180,227,4,97,100,0,44932,100,230269,275890,1.8
2190,228,4,97,100,0,41971,100,230261,275954,1.8
2200,229,4,97,100,0,39228,100,230327,276051,1.8
2210,230,4,97,100,0,36750,100,230371,276179,1.8
2220,231,4,97,100,0,34626,100,230428,276324,1.8
2230,232,4,97,100,0,32858,100,230477,276444,1.8
2240,233,4,97,100,0,31402,100,230550,276645,1.8
2250,234,4,97,100,0,30259,100,230599,276824,1.8
2260,235,4,97,100,0,29387,100,230669,277019,1.8
2270,236,4,97,100,0,28694,100,230715,277171,1.8
2280,237,4,97,100,0,28183,100,230793,277349,1.8
2290,238,4,97,100,0,27670,100,230786,277480,1.8
2300,239,4,97,100,0,27156,100,230888,277691,1.8
2310,240,4,97,100,0,26548,100,230921,277764,1.8
2320,241,4,97,100,0,25800,100,230991,277885,1.8
2330,242,4,97,100,0,24912,100,230985,278055,1.8
2340,243,4,97,100,0,23836,100,231050,278107,1.8
2350,244,4,97,100,0,22620,100,231098,278201,1.8
2360,245,4,97,100,0,21308,100,231135,278272,1.8
2370,246,4,97,100,0,19808,100,231155,278333,1.8
2380,247,4,97,100,0,18214,100,231207,278395,1.8
2390,248,4,97,100,0,16664,100,231218,278493,1.8
2400,249,4,97,100,0,15067,100,231275,278572,1.8
2410,250,4,97,100,0,13562,100,231282,278649,1.8
2420,251,4,97,100,0,12103,100,231300,278800,1.8
2430,252,4,97,100,0,10785,100,231376,278852,1.8
2440,253,4,97,100,0,9561,100,231402,279041,1.8
2450,254,4,97,100,0,8431,100,231480,279139,1.8
2460,255,4,97,100,0,7488,100,231540,279322,1.8
2470,256,4,97,100,0,6640,100,231565,279415,1.8
2480,257,4,97,100,0,5886,100,231622,279541,1.8
2490,258,4,97,100,0,5227,100,231601,279593,1.8
2500,259,4,97,100,0,4615,100,231627,279604,1.8
2510,260,4,97,100,0,3958,100,231648,279512,1.8
2520,261,4,97,100,0,3302,100,231476,279152,1.8
2530,262,4,97,100,0,3276,100,231193,278440,1.8
2540,263,4,97,100,0,3276,100,230887,277591,1.8
2550,264,4,97,100,0,3276,100,230475,276571,1.8
2560,265,4,97,100,0,3365,100,230170,275618,1.8
2570,266,4,97,100,0,3855,100,229869,274839,1.8
2580,267,4,97,100,0,5060,100,229645,274332,1.8
2590,268,4,97,100,0,6979,100,229572,274094,1.8
2600,269,4,97,100,0,9745,100,229547,274050,1.8
2610,270,4,97,100,0,13360,100,229606,274131,1.8
2620,271,4,97,100,0,17784,100,229657,274247,1.8
2630,272,4,97,100,0,22840,100,229687,274357,1.8
2640,273,4,97,100,0,28358,100,229741,274530,1.8
2650,274,4,97,100,0,34164,100,229788,274569,1.8
2660,275,4,97,100,0,39900,100,229805,274671,1.8
2670,276,4,97,100,0,45333,100,229787,274636,1.8
2680,277,4,97,100,0,50275,100,229817,274701,1.8
2690,278,4,97,100,0,54585,100,229852,274687,1.8
2700,279,4,97,100,0,58033,100,229871,274843,1.8
2710,280,4,97,100,0,60663,100,229933,274969,1.8
2720,281,4,97,100,0,62258,100,230050,275193,1.8
2730,282,4,97,100,0,61913,100,230137,275524,1.8
2740,283,4,97,100,0,61537,100,230277,275888,1.8
2750,284,4,96,100,8,60987,100,230333,276110,1.8
2760,285,4,96,100,0,59760,100,230415,276290,1.8
2770,286,4,96,100,0,57941,100,230430,276315,1.8
2780,287,4,96,100,0,55742,100,230448,276315,1.8
2790,288,4,96,100,0,53163,100,230373,276162,1.8
2800,289,4,96,100,0,50371,100,230362,276103,1.8
2810,290,4,96,100,0,47536,100,230295,276074,1.8
2820,291,4,96,100,0,44740,100,230325,276068,1.8
2830,292,4,96,100,0,42025,100,230335,276162,1.8
2840,293,4,96,100,0,39603,100,230429,276330,1.8
2850,294,4,96,100,0,37432,100,230481,276403,1.8
2860,295,4,96,100,0,35597,100,230545,276613,1.8
2870,296,4,96,100,0,34141,100,230603,276805,1.8
2880,297,4,96,100,0,32939,100,230675,276917,1.8
2890,298,4,96,100,0,32034,100,230734,277118,1.8
2900,299,4,96,100,0,31385,100,230764,277298,1.8
2910,300,4,96,100,0,30819,100,230805,277388,1.8
2920,301,4,96,100,0,30339,100,230906,277651,1.8
2930,302,4,96,100,0,29856,100,230938,277745,1.8
2940,303,4,96,100,0,29329,100,230978,277906,1.8
2950,304,4,96,100,0,28669,100,231059,278029,1.8
2960,305,4,96,100,0,27876,100,231093,278138,1.8
2970,306,4,96,100,0,26906,100,231126,278267,1.8
2980,307,4,96,100,0,25846,100,231162,278347,1.8
2990,308,4,96,100,0,24651,100,231211,278397,1.8
3000,309,4,96,100,0,23322,100,231248,278472,1.8
3010,310,4,96,100,0,21902,100,231286,278573,1.8
3020,311,4,96,100,0,20436,100,231298,278622,1.8
3030,312,4,96,100,0,18967,100,231327,278686,1.8
3040,313,4,96,100,0,17541,100,231368,278759,1.8
3050,314,4,96,100,0,16158,100,231398,278845,1.8
3060,315,4,96,100,0,14863,100,231413,278925,1.8
3070,316,4,96,100,0,13655,100,231476,279069,1.8
3080,317,4,96,100,0,12580,100,231525,279175,1.8
3090,318,4,96,100,0,11638,100,231565,279300,1.8
3100,319,4,96,100,0,10785,100,231628,279472,1.8
3110,320,4,96,100,0,10065,100,231674,279517,1.8
3120,321,4,96,100,0,9390,100,231709,279604,1.8
3130,322,4,96,100,0,8804,100,231719,279697,1.8
3140,323,4,96,100,0,8219,100,231735,279626,1.8
3150,324,4,96,100,0,7679,100,231631,279339,1.8
3160,325,4,96,100,0,7139,100,231390,278809,1.8
3170,326,4,96,100,0,6688,100,231074,277992,1.8
3180,327,4,96,100,0,6371,100,230697,276971,1.8
3190,328,4,96,100,0,6321,100,230300,275955,1.8
3200,329,4,96,100,0,6671,100,229977,275110,1.8
3210,330,4,96,100,0,7553,100,229738,274447,1.8
3220,331,4,96,100,0,9145,100,229658,274142,1.8
3230,332,4,96,100,0,11580,100,229611,274060,1.8
3240,333,4,96,100,0,14906,100,229629,274031,1.8
3250,334,4,96,100,0,19034,100,229648,274175,1.8
3260,335,4,96,100,0,23883,100,229726,274351,1.8
3270,336,4,96,100,0,29234,100,229789,274402,1.8
3280,337,4,96,100,0,34918,100,229819,274528,1.8
3290,338,4,96,100,0,40665,100,229818,274572,1.8
3300,339,4,96,100,0,46245,100,229836,274559,1.8
3310,340,4,96,100,0,51381,100,229862,274606,1.8
3320,341,4,96,100,0,55934,100,229886,274543,1.8
3330,342,4,96,100,0,59763,100,229849,274604,1.8
3340,343,4,96,100,0,62258,100,229887,274685,1.8
3350,344,4,96,100,0,62258,100,229970,274894,1.8
3360,345,4,96,100,0,62258,100,230052,275156,1.8
3370,346,4,96,100,0,62141,100,230168,275489,1.8
3380,347,4,96,100,0,61869,100,230271,275768,1.8
3390,348,4,96,100,8,61052,100,230339,275991,1.8
3400,349,4,96,100,0,59770,100,230365,276099,1.8
3410,350,4,96,100,0,58023,100,230369,276078,1.8
3420,351,4,96,100,0,55927,100,230343,275978,1.8
3430,352,4,96,100,0,53560,100,230325,275944,1.8
3440,353,4,96,100,0,51115,100,230336,275858,1.8
3450,354,4,96,100,0,48553,100,230295,275811,1.8
3460,355,4,96,100,0,46144,100,230306,275865,1.8
3470,356,4,96,100,0,43889,100,230337,275923,1.8
3480,357,4,96,100,0,41825,100,230392,276057,1.8
3490,358,4,96,100,0,40071,100,230416,276159,1.8
3500,359,4,96,100,0,38588,100,230487,276356,1.8
3510,360,4,96,100,0,37377,100,230548,276532,1.8
3520,361,4,96,100,0,36516,100,230599,276749,1.8
3530,362,4,96,100,0,35772,100,230698,276880,1.8
3540,363,4,96,100,0,35223,100,230718,277052,1.8
3550,364,4,96,100,0,34791,100,230816,277221,1.8
3560,365,4,96,100,0,34357,100,230883,277357,1.8
3570,366,4,96,100,0,33882,100,230894,277490,1.8
3580,367,4,96,100,0,33366,100,230985,277654,1.8
3590,368,4,96,100,0,32647,100,231026,277736,1.8
3600,369,4,96,100,0,31846,100,231070,277884,1.8
3610,370,4,96,100,0,30921,100,231049,277893,1.8
3620,371,4,96,100,0,29791,100,231118,277970,1.8
3630,372,4,96,100,0,28578,100,231139,278053,1.8
3640,373,4,96,100,0,27239,100,231141,278117,1.8
3650,374,4,96,100,0,25897,100,231187,278143,1.8
3660,375,4,96,100,0,24511,100,231228,278285,1.8
3670,376,4,96,100,0,23203,100,231265,278351,1.8
3680,377,4,96,100,0,21893,100,231263,278409,1.8
3690,378,4,96,100,0,20620,100,231307,278537,1.8
3700,379,4,96,100,0,19427,100,231401,278591,1.8
3710,380,4,96,100,0,18437,100,231438,278778,1.8
3720,381,4,96,100,0,17526,100,231458,278832,1.8
3730,382,4,96,100,0,16696,100,231525,279038,1.8
3740,383,4,96,100,0,15988,100,231547,279095,1.8
3750,384,4,96,100,0,15362,100,231627,279188,1.8
3760,385,4,96,100,0,14776,100,231616,279275,1.8
3770,386,4,96,100,0,14190,100,231667,279292,1.8
3780,387,4,96,100,0,13645,100,231592,279137,1.8
3790,388,4,96,100,0,13058,100,231440,278742,1.8
3800,389,4,96,100,0,12554,100,231027,277998,1.8
3810,390,4,96,100,0,12132,100,230777,277056,1.8
3820,391,4,96,100,0,11874,100,230420,276018,1.8
3830,392,4,96,100,0,11944,100,230046,275003,1.8
3840,393,4,96,100,0,12466,100,229735,274269,1.8
3850,394,4,96,100,0,13563,100,229538,273840,1.8
3860,395,4,96,100,0,15400,100,229464,273589,1.8
3870,396,4,96,100,0,18061,100,229466,273609,1.8
4760,485,4,95,100,0,39313,100,230127,275958,1.8
4770,486,4,95,100,0,37828,100,230227,276202,1.8
4780,487,4,95,100,0,36646,100,230287,276347,1.8
4790,488,4,95,100,0,35768,100,230332,276543,1.8
4800,489,4,95,100,0,35080,100,230400,276574,1.8
4810,490,4,95,100,0,34505,100,230476,276924,1.8
4820,491,4,95,100,0,34005,100,230528,277085,1.8
4830,492,4,95,100,0,33581,100,230574,277245,1.8
4840,493,4,95,100,0,33078,100,230645,277386,1.8
4850,494,4,95,100,0,32495,100,230737,277577,1.8
4860,495,4,95,100,0,31792,100,230745,277732,1.8
4870,496,4,95,100,0,30892,100,230818,277827,1.8
4880,497,4,95,100,0,29871,100,230851,277857,1.8
4890,498,4,95,100,0,28690,100,230878,277931,1.8
4900,499,4,95,100,0,27426,100,230890,277878,1.8
4910,500,4,95,100,0,26042,100,230945,278097,1.8
4920,501,4,95,100,0,24575,100,230941,278155,1.8
4930,502,4,95,100,0,23104,100,230961,278209,1.8
4940,503,4,95,100,0,21631,100,230987,278297,1.8
4950,504,4,95,100,0,20195,100,231024,278404,1.8
4960,505,4,95,100,0,18875,100,231049,278492,1.8
4970,506,4,95,100,0,17673,100,231134,278600,1.8
4980,507,4,95,100,0,16589,100,231151,278680,1.8
4990,508,4,95,100,0,15623,100,231187,278796,1.8
5000,509,4,95,100,0,14776,100,231220,278968,1.8
5010,510,4,95,100,0,14007,100,231277,279098,1.8
5020,511,4,95,100,0,13318,100,231368,279263,1.8
5030,512,4,95,100,0,12749,100,231398,279382,1.8
5040,513,4,95,100,0,12219,100,231444,279455,1.8
5050,514,4,95,100,0,11689,100,231512,279496,1.8
5060,515,4,95,100,0,11199,100,231439,279433,1.8
5070,516,4,95,100,0,10670,100,231390,279217,1.8
5080,517,4,95,100,0,10141,100,231143,278664,1.8
5090,518,4,95,100,0,9612,100,230863,277798,1.8
5100,519,4,95,100,0,9243,100,230474,276792,1.8
5110,520,4,95,100,0,9035,100,230082,275792,1.8
5120,521,4,95,100,0,9185,100,229736,274910,1.8
5130,522,4,95,100,0,9855,100,229523,274284,1.8
5140,523,4,95,100,0,11244,100,229387,273926,1.8
5150,524,4,95,100,0,13352,100,229338,273834,1.8
5160,525,4,95,100,0,16261,100,229350,273832,1.8
5170,526,4,95,100,0,19933,100,229383,273879,1.8
5180,527,4,95,100,0,24254,100,229439,274079,1.8
5190,528,4,95,100,0,29107,100,229501,274191,1.8
5200,529,4,95,100,0,34258,100,229529,274323,1.8
5210,530,4,95,100,0,39508,100,229576,274392,1.8
5220,531,4,95,100,0,44569,100,229596,274464,1.8
5230,532,4,95,100,0,49273,100,229605,274444,1.8
5240,533,4,95,100,0,53374,100,229608,274476,1.8
5250,534,4,95,100,0,56866,100,229623,274546,1.8
5260,535,4,95,100,0,59586,100,229669,274691,1.8
5270,536,4,95,100,0,61533,100,229779,274942,1.8
5280,537,4,95,100,0,62258,100,229835,275216,1.8
5290,538,4,95,100,0,62258,100,229982,275556,1.8
5300,539,4,95,100,8,61864,100,230065,275793,1.8
5310,540,4,95,100,0,60880,100,230135,275977,1.8
5320,541,4,95,100,0,59305,100,230114,276027,1.8
5330,542,4,95,100,0,57299,100,230150,276019,1.8
5340,543,4,95,100,0,54939,100,230107,275909,1.8
5350,544,4,95,100,0,52343,100,230063,275845,1.8
5360,545,4,95,100,0,49628,100,230040,275773,1.8
5370,546,4,95,100,0,46911,100,230088,275793,1.8
5380,547,4,95,100,0,44310,100,230110,275901,1.8
5390,548,4,95,100,0,41982,100,230114,276017,1.8
5400,549,4,95,100,0,39847,100,230129,276117,1.8
5410,550,4,95,100,0,38026,100,230220,276199,1.8
5420,551,4,95,100,0,36558,100,230265,276461,1.8
5430,552,4,95,100,0,35366,100,230343,276605,1.8
5440,553,4,95,100,0,34489,100,230378,276797,1.8
5450,554,4,95,100,0,33770,100,230440,276998,1.8
5460,555,4,95,100,0,33250,100,230508,277181,1.8
5470,556,4,95,100,0,32807,100,230582,277306,1.8
5480,557,4,95,100,0,32363,100,230634,277502,1.8
5490,558,4,95,100,0,31877,100,230712,277568,1.8
5500,559,4,95,100,0,31349,100,230717,277756,1.8
5510,560,4,95,100,0,30656,100,230778,277876,1.8
5520,561,4,95,100,0,29757,100,230848,278018,1.8
5530,562,4,95,100,0,28734,100,230905,278100,1.8
5540,563,4,95,100,0,27544,100,230876,278175,1.8
5550,564,4,95,100,0,26228,100,230922,278218,1.8
5560,565,4,95,100,0,24785,100,230960,278312,1.8
5570,566,4,95,100,0,23340,100,230991,278404,1.8
5580,567,4,95,100,0,21810,100,231064,278493,1.8
5590,568,4,95,100,0,20400,100,231051,278524,1.8
5600,569,4,95,100,0,18988,100,231115,278642,1.8
5610,570,4,95,100,0,17658,100,231133,278713,1.8
5620,571,4,95,100,0,16449,100,231161,278809,1.8
5630,572,4,95,100,0,15364,100,231234,278922,1.8
5640,573,4,95,100,0,14360,100,231274,279111,1.8
5650,574,4,95,100,0,13480,100,231326,279243,1.8
5660,575,4,95,100,0,12683,100,231384,279369,1.8
5670,576,4,95,100,0,12010,100,231412,279500,1.8
5680,577,4,95,100,0,11378,100,231485,279628,1.8
5690,578,4,95,100,0,10788,100,231518,279742,1.8
5700,579,4,95,100,0,10198,100,231527,279733,1.8
5710,580,4,95,100,0,9609,100,231522,279632,1.8
5720,581,4,95,100,0,9061,100,231376,279238,1.8
5730,582,4,95,100,0,8473,100,231099,278630,1.8
5740,583,4,95,100,0,7968,100,230768,277720,1.8
5750,584,4,95,100,0,7629,100,230405,276747,1.8
5760,585,4,95,100,0,7580,100,230047,275799,1.8
5770,586,4,95,100,0,7947,100,229758,275002,1.8
5780,587,4,95,100,0,8811,100,229531,274473,1.8
5790,588,4,95,100,0,10420,100,229471,274242,1.8
5800,589,4,95,100,0,12859,100,229396,274104,1.8
5810,590,4,95,100,0,16088,100,229431,274176,1.8
5820,591,4,95,100,0,20068,100,229504,274328,1.8
5830,592,4,95,100,0,24679,100,229542,274465,1.8
5840,593,4,95,100,0,29760,100,229635,274605,1.8
5850,594,4,95,100,0,35068,100,229682,274690,1.8
5860,595,4,95,100,0,40352,100,229680,274777,1.8
5870,596,4,95,100,0,45397,100,229722,274813,1.8
5880,597,4,95,100,0,50028,100,229736,274783,1.8
5890,598,4,95,100,0,54073,100,229725,274853,1.8
5900,599,4,95,100,0,57361,100,229776,275039,1.8
5910,600,4,95,100,0,59848,100,229820,275175,1.8
5920,601,4,95,100,0,61491,100,229948,275430,1.8
5930,602,4,95,100,0,62258,100,230011,275712,1.8
5940,603,4,95,100,0,62258,100,230122,276087,1.8
5950,604,4,95,100,8,61589,100,230215,276260,1.8
5960,605,4,95,100,0,60335,100,230266,276468,1.8
5970,606,4,95,100,0,58540,100,230271,276434,1.8
5980,607,4,95,100,0,56244,100,230263,276437,1.8
5990,608,4,95,100,0,53614,100,230241,276298,1.8
6000,609,4,95,100,0,50817,100,230202,276267,1.8
6010,610,4,95,100,0,47935,100,230215,276188,1.8
6020,611,4,95,100,0,45092,100,230220,276254,1.8
6030,612,4,95,100,0,42454,100,230271,276305,1.8
6040,613,4,95,100,0,40022,100,230274,276463,1.8
6050,614,4,95,100,0,37921,100,230352,276557,1.8
6060,615,4,95,100,0,36195,100,230430,276714,1.8
6070,616,4,95,100,0,34760,100,230427,276881,1.8
6080,617,4,95,100,0,33659,100,230516,277122,1.8
6090,618,4,95,100,0,32852,100,230563,277237,1.8
6100,619,4,95,100,0,32213,100,230600,277475,1.8
6110,620,4,95,100,0,31741,100,230691,277594,1.8
6120,621,4,95,100,0,31311,100,230732,277757,1.8
6130,622,4,95,100,0,30880,100,230779,277929,1.8
6140,623,4,95,100,0,30361,100,230868,278119,1.8
6150,624,4,95,100,0,29711,100,230916,278235,1.8
6160,625,4,95,100,0,28887,100,231023,278419,1.8
6170,626,4,95,100,0,27973,100,231007,278451,1.8
6180,627,4,95,100,0,26841,100,231029,278558,1.8
6190,628,4,95,100,0,25576,100,231030,278568,1.8
6200,629,4,95,100,0,24177,100,231065,278675,1.8
6210,630,4,95,100,0,22646,100,231085,278729,1.8
6220,631,4,95,100,0,21112,100,231147,278793,1.8
6230,632,4,95,100,0,19531,100,231169,278872,1.8
6240,633,4,95,100,0,17993,100,231234,279016,1.8
6250,634,4,95,100,0,16584,100,231223,279073,1.8
6260,635,4,95,100,0,15261,100,231276,279172,1.8
6270,636,4,95,100,0,14025,100,231299,279239,1.8
6280,637,4,95,100,0,12920,100,231380,279376,1.8
6290,638,4,95,100,0,11947,100,231407,279494,1.8
6300,639,4,95,100,0,11105,100,231464,279657,1.8
6310,640,4,95,100,0,10350,100,231521,279777,1.8
6320,641,4,95,100,0,9684,100,231587,279916,1.8
6330,642,4,95,100,0,9106,100,231616,280018,1.8
6340,643,4,95,100,0,8528,100,231635,280030,1.8
6350,644,4,95,100,0,7951,100,231623,279935,1.8
6360,645,4,95,100,0,7374,100,231504,279656,1.8
6370,646,4,95,100,0,6798,100,231192,279037,1.8
6380,647,4,95,100,0,6267,100,230946,278200,1.8
6390,648,4,95,100,0,5955,100,230544,277143,1.8
6400,649,4,95,100,0,5907,100,230191,276175,1.8
6410,650,4,95,100,0,6298,100,229886,275370,1.8
6420,651,4,95,100,0,7214,100,229668,274754,1.8
6430,652,4,95,100,0,8874,100,229519,274447,1.8
6440,653,4,95,100,0,11411,100,229484,274388,1.8
6450,654,4,95,100,0,14783,100,229530,274430,1.8
6460,655,4,95,100,0,18947,100,229574,274536,1.8
6470,656,4,95,100,0,23777,100,229613,274679,1.8
6480,657,4,95,100,0,29192,100,229708,274784,1.8
6490,658,4,95,100,0,34846,100,229729,274892,1.8
6500,659,4,95,100,0,40563,100,229733,274939,1.8
6510,660,4,95,100,0,46027,100,229734,274894,1.8
6520,661,4,95,100,0,51143,100,229743,274943,1.8
6530,662,4,95,100,0,55638,100,229764,274928,1.8
6540,663,4,95,100,0,59287,100,229753,275017,1.8
6550,664,4,95,100,0,62133,100,229849,275173,1.8
6560,665,4,95,100,0,62258,100,229901,275352,1.8
6570,666,4,95,100,0,62258,100,229993,275675,1.8
6580,667,4,95,100,0,62258,100,230088,275969,1.8
6590,668,4,95,100,8,61901,100,230236,276281,1.8
6600,669,4,95,100,0,60948,100,230264,276523,1.8
6610,670,4,95,100,0,59480,100,230312,276593,1.8
6620,671,4,95,100,0,57577,100,230351,276599,1.8
6630,672,4,95,100,0,55277,100,230306,276464,1.8
6640,673,4,95,100,0,52700,100,230258,276431,1.8
6650,674,4,95,100,0,50003,100,230242,276340,1.8
6660,675,4,95,100,0,47304,100,230254,276354,1.8
6670,676,4,95,100,0,44722,100,230286,276385,1.8
6680,677,4,95,100,0,42296,100,230305,276523,1.8
6690,678,4,95,100,0,40105,100,230375,276623,1.8
6700,679,4,95,100,0,38229,100,230375,276737,1.8
6710,680,4,95,100,0,36709,100,230437,276897,1.8
6720,681,4,95,100,0,35508,100,230494,277039,1.8
6730,682,4,95,100,0,34503,100,230570,277279,1.8
6740,683,4,95,100,0,33778,100,230675,277426,1.8
6750,684,4,94,100,0,33172,100,230720,277630,1.8
6760,685,4,94,100,0,32726,100,230797,277802,1.8
6770,686,4,94,100,0,32279,100,230831,277922,1.8
6780,687,4,94,100,0,31870,100,230878,278072,1.8
6790,688,4,94,100,0,31296,100,230983,278199,1.8
6800,689,4,94,100,0,30639,100,230961,278263,1.8
6810,690,4,94,100,0,29815,100,231009,278369,1.8
6820,691,4,94,100,0,28866,100,231054,278463,1.8
6830,692,4,94,100,0,27748,100,231073,278562,1.8
6840,693,4,94,100,0,26505,100,231130,278616,1.8
6850,694,4,94,100,0,25216,100,231115,278693,1.8
6860,695,4,94,100,0,23842,100,231157,278721,1.8
6870,696,4,94,100,0,22424,100,231196,278788,1.8
6880,697,4,94,100,0,21044,100,231213,278896,1.8
6890,698,4,94,100,0,19704,100,231238,278954,1.8
6900,699,4,94,100,0,18445,100,231285,279028,1.8
6910,700,4,94,100,0,17268,100,231352,279144,1.8
6920,701,4,94,100,0,16215,100,231361,279263,1.8
6930,702,4,94,100,0,15285,100,231447,279396,1.8
6940,703,4,94,100,0,14481,100,231473,279536,1.8
6950,704,4,94,100,0,13759,100,231537,279666,1.8
6960,705,4,94,100,0,13079,100,231560,279742,1.8
6970,706,4,94,100,0,12524,100,231615,279810,1.8
6980,707,4,94,100,0,11927,100,231612,279794,1.8
6990,708,4,94,100,0,11414,100,231543,279531,1.8
7000,709,4,94,100,0,10902,100,231292,278999,1.8
7010,710,4,94,100,0,10431,100,230986,278208,1.8
7020,711,4,94,100,0,10128,100,230635,277202,1.8
7030,712,4,94,100,0,9992,100,230232,276188,1.8
7040,713,4,94,100,0,10191,100,229928,275318,1.8
7050,714,4,94,100,0,10934,100,229663,274700,1.8
7060,715,4,94,100,0,12347,100,229554,274357,1.8
7070,716,4,94,100,0,14515,100,229485,274254,1.8
7080,717,4,94,100,0,17480,100,229519,274246,1.8
7090,718,4,94,100,0,21205,100,229560,274320,1.8
7100,719,4,94,100,0,25609,100,229571,274455,1.8
7110,720,4,94,100,0,30489,100,229646,274601,1.8
7120,721,4,94,100,0,35767,100,229681,274667,1.8
7130,722,4,94,100,0,41147,100,229711,274739,1.8
7140,723,4,94,100,0,46326,100,229687,274755,1.8
7150,724,4,94,100,0,51171,100,229724,274694,1.8
7160,725,4,94,100,0,55424,100,229682,274684,1.8
7170,726,4,94,100,0,59037,100,229724,274748,1.8
7180,727,4,94,100,0,61883,100,229746,274886,1.8
7190,728,4,94,100,0,62258,100,229821,275061,1.8
7200,729,4,94,100,0,62258,100,229891,275275,1.8
7210,730,4,94,100,0,62258,100,230007,275591,1.8
7220,731,4,94,100,0,62068,100,230092,275875,1.8
7230,732,4,94,100,8,61350,100,230159,276123,1.8
7240,733,4,94,100,0,60102,100,230239,276223,1.8
7250,734,4,94,100,0,58440,100,230236,276248,1.8
7260,735,4,94,100,0,56400,100,230247,276213,1.8
7270,736,4,94,100,0,54135,100,230213,276141,1.8
7280,737,4,94,100,0,51719,100,230174,276030,1.8
7290,738,4,94,100,0,49264,100,230160,276029,1.8
7300,739,4,94,100,0,46883,100,230204,276068,1.8
7310,740,4,94,100,0,44614,100,230197,276126,1.8
7320,741,4,94,100,0,42569,100,230286,276270,1.8
7330,742,4,94,100,0,40788,100,230322,276390,1.8
7340,743,4,94,100,0,39308,100,230377,276537,1.8
7350,744,4,94,100,0,38093,100,230422,276767,1.8
7360,745,4,94,100,0,37142,100,230480,276921,1.8
7370,746,4,94,100,0,36381,100,230553,277110,1.8
7380,747,4,94,100,0,35771,100,230607,277253,1.8
7390,748,4,94,100,0,35275,100,230680,277390,1.8
7400,749,4,94,100,0,34816,100,230696,277550,1.8
7410,750,4,94,100,0,34316,100,230799,277715,1.8
7420,751,4,94,100,0,33737,100,230846,277851,1.8
7430,752,4,94,100,0,33078,100,230890,277967,1.8
7440,753,4,94,100,0,32300,100,230918,278033,1.8
7450,754,4,94,100,0,31362,100,230969,278126,1.8
7460,755,4,94,100,0,30304,100,230980,278171,1.8
7470,756,4,94,100,0,29124,100,231023,278226,1.8
7480,757,4,94,100,0,27863,100,231040,278340,1.8
7490,758,4,94,100,0,26519,100,231084,278414,1.8
7500,759,4,94,100,0,25211,100,231072,278476,1.8
7510,760,4,94,100,0,23899,100,231163,278535,1.8
7520,761,4,94,100,0,22585,100,231170,278610,1.8
7530,762,4,94,100,0,21348,100,231202,278704,1.8
7540,763,4,94,100,0,20187,100,231249,278790,1.8
7550,764,4,94,100,0,19144,100,231300,278939,1.8
7560,765,4,94,100,0,18258,100,231319,279021,1.8
7570,766,4,94,100,0,17450,100,231367,279207,1.8
7580,767,4,94,100,0,16721,100,231404,279278,1.8
7590,768,4,94,100,0,16111,100,231479,279429,1.8
7600,769,4,94,100,0,15500,100,231503,279460,1.8
7610,770,4,94,100,0,14969,100,231497,279547,1.8
7620,771,4,94,100,0,14438,100,231558,279516,1.8
7630,772,4,94,100,0,13906,100,231445,279324,1.8
7640,773,4,94,100,0,13375,100,231220,278707,1.8
7650,774,4,94,100,0,12923,100,230900,277872,1.8
7660,775,4,94,100,0,12511,100,230480,276849,1.8
7670,776,4,94,100,0,12339,100,230114,275823,1.8
7680,777,4,94,100,0,12526,100,229725,274901,1.8
7690,778,4,94,100,0,13233,100,229490,274287,1.8
7700,779,4,94,100,0,14581,100,229381,273920,1.8
7710,780,4,94,100,0,16690,100,229342,273854,1.8
7720,781,4,94,100,0,19603,100,229357,273877,1.8
7730,782,4,94,100,0,23283,100,229381,274047,1.8
7740,783,4,94,100,0,27615,100,229476,274154,1.8
7750,784,4,94,100,0,32444,100,229506,274305,1.8
7760,785,4,94,100,0,37614,100,229508,274347,1.8
7770,786,4,94,100,0,42799,100,229554,274422,1.8
7780,787,4,94,100,0,47831,100,229539,274405,1.8
7790,788,4,94,100,0,52502,100,229510,274392,1.8
7800,789,4,94,100,0,56605,100,229489,274357,1.8
7810,790,4,94,100,0,60096,100,229513,274461,1.8
7820,791,4,94,100,0,62258,100,229516,274474,1.8
7830,792,4,94,100,0,62258,100,229615,274705,1.8
7840,793,4,94,100,0,62258,100,229680,274934,1.8
7850,794,4,94,100,0,62187,100,229804,275265,1.8
7860,795,4,94,100,0,61939,100,229870,275514,1.8
7870,796,4,94,100,8,61232,100,229998,275791,1.8
7880,797,4,94,100,0,60030,100,229993,275871,1.8
7890,798,4,94,100,0,58405,100,230024,275911,1.8
7900,799,4,94,100,0,56463,100,229971,275830,1.8
7910,800,4,94,100,0,54310,100,229954,275782,1.8
7920,801,4,94,100,0,52051,100,229937,275756,1.8
7930,802,4,94,100,0,49756,100,229936,275705,1.8
7940,803,4,94,100,0,47495,100,229926,275695,1.8
7950,804,4,94,100,0,45339,100,229978,275805,1.8
7960,805,4,94,100,0,43464,100,230005,275920,1.8
7970,806,4,94,100,0,41801,100,230053,276107,1.8
7980,807,4,94,100,0,40383,100,230137,276256,1.8
7990,808,4,94,100,0,39249,100,230196,276488,1.8
8000,809,4,94,100,0,38327,100,230249,276655,1.8
8010,810,4,94,100,0,37581,100,230365,276863,1.8
8020,811,4,94,100,0,36978,100,230363,277012,1.8
8030,812,4,94,100,0,36408,100,230454,277173,1.8
8040,813,4,94,100,0,35873,100,230515,277369,1.8
8050,814,4,94,100,0,35336,100,230593,277551,1.8
8060,815,4,94,100,0,34724,100,230592,277623,1.8
8070,816,4,94,100,0,34002,100,230683,277751,1.8
8080,817,4,94,100,0,33131,100,230695,277832,1.8
8090,818,4,94,100,0,32111,100,230760,277923,1.8
8100,819,4,94,100,0,31014,100,230778,278014,1.8
8110,820,4,94,100,0,29803,100,230768,278053,1.8
8120,821,4,94,100,0,28478,100,230796,278129,1.8
8130,822,4,94,100,0,27113,100,230850,278210,1.8
8140,823,4,94,100,0,25744,100,230835,278259,1.8
8150,824,4,94,100,0,24408,100,230885,278406,1.8
8160,825,4,94,100,0,23179,100,230963,278472,1.8
8170,826,4,94,100,0,21949,100,230993,278597,1.8
8180,827,4,94,100,0,20863,100,231049,278680,1.8
8190,828,4,94,100,0,19888,100,231071,278860,1.8
8200,829,4,94,100,0,18948,100,231139,279022,1.8
8210,830,4,94,100,0,18155,100,231169,279160,1.8
8220,831,4,94,100,0,17435,100,231272,279277,1.8
8230,832,4,94,100,0,16752,100,231292,279316,1.8
8240,833,4,94,100,0,16106,100,231305,279418,1.8
8250,834,4,94,100,0,15496,100,231315,279413,1.8
8260,835,4,94,100,0,14887,100,231213,279161,1.8
8270,836,4,94,100,0,14277,100,231052,278717,1.8
8280,837,4,94,100,0,13741,100,230726,277935,1.8
8290,838,4,94,100,0,13280,100,230384,277011,1.8
8300,839,4,94,100,0,13006,100,229984,275992,1.8
8310,840,4,94,100,0,13105,100,229657,275146,1.8
8320,841,4,94,100,0,13577,100,229414,274479,1.8
8330,842,4,94,100,0,14649,100,229320,274168,1.8
8340,843,4,94,100,0,16356,100,229264,274028,1.8
8350,844,4,94,100,0,18853,100,229267,274073,1.8
8360,845,4,94,100,0,22028,100,229328,274174,1.8
8370,846,4,94,100,0,25735,100,229386,274331,1.8
8380,847,4,94,100,0,29979,100,229413,274421,1.8
8390,848,4,94,100,0,34465,100,229491,274558,1.8
8400,849,4,94,100,0,39118,100,229510,274656,1.8
8410,850,4,94,100,0,43631,100,229533,274657,1.8
8420,851,4,94,100,0,47848,100,229550,274694,1.8
8430,852,4,94,100,0,51539,100,229567,274726,1.8
8440,853,4,94,100,0,54660,100,229572,274741,1.8
8450,854,4,94,100,0,57098,100,229622,274928,1.8
8460,855,4,94,100,0,58813,100,229648,275123,1.8
8470,856,4,94,100,0,59804,100,229777,275397,1.8
8480,857,4,94,100,0,60112,100,229888,275745,1.8
8490,858,4,94,100,8,59774,100,229986,276084,1.8
8500,859,4,94,100,0,58906,100,230046,276226,1.8
8510,860,4,94,100,0,57469,100,230051,276276,1.8
8520,861,4,94,100,0,55578,100,230075,276288,1.8
8530,862,4,94,100,0,53384,100,230036,276160,1.8
8540,863,4,94,100,0,50925,100,229991,276074,1.8
8550,864,4,94,100,0,48350,100,229967,276016,1.8
8560,865,4,94,100,0,45773,100,229986,276051,1.8
8570,866,4,94,100,0,43306,100,230013,276111,1.8
8580,867,4,94,100,0,41027,100,230045,276180,1.8
8590,868,4,94,100,0,39009,100,230102,276350,1.8
8600,869,4,94,100,0,37255,100,230160,276486,1.8
8610,870,4,94,100,0,35803,100,230220,276651,1.8
8620,871,4,94,100,0,34692,100,230245,276854,1.8
8630,872,4,94,100,0,33808,100,230351,277006,1.8
8640,873,4,94,100,0,33153,100,230409,277226,1.8
8650,874,4,94,100,0,32651,100,230465,277379,1.8
8660,875,4,94,100,0,32224,100,230548,277602,1.8
8670,876,4,94,100,0,31795,100,230570,277724,1.8
8680,877,4,94,100,0,31326,100,230630,277856,1.8
8690,878,4,94,100,0,30777,100,230717,277983,1.8
8700,879,4,94,100,0,30109,100,230770,278113,1.8
8710,880,4,94,100,0,29243,100,230757,278238,1.8
8720,881,4,94,100,0,28256,100,230832,278323,1.8
8730,882,4,94,100,0,27109,100,230833,278412,1.8
8740,883,4,94,100,0,25802,100,230896,278562,1.8
8750,884,4,94,100,0,24413,100,230918,278567,1.9
8760,885,4,94,100,0,23020,100,230907,278627,1.9
8770,886,4,94,100,0,21546,100,230997,278724,1.9
8780,887,4,94,100,0,20109,100,230991,278823,1.9
8790,888,4,94,100,0,18709,100,231020,278875,1.9
8800,889,4,94,100,0,17427,100,231103,279001,1.9
8810,890,4,94,100,0,16223,100,231104,279117,1.9
8820,891,4,94,100,0,15098,100,231181,279195,1.9
8830,892,4,94,100,0,14131,100,231186,279277,1.9
8840,893,4,94,100,0,13323,100,231261,279403,1.9
8850,894,4,94,100,0,12554,100,231254,279559,1.9
8860,895,4,94,100,0,11905,100,231356,279680,1.9
8870,896,4,94,100,0,11336,100,231394,279836,1.9
8880,897,4,94,100,0,10767,100,231431,279935,1.9
8890,898,4,94,100,0,10278,100,231465,279936,1.9
8900,899,4,94,100,0,9789,100,231495,279942,1.9
8910,900,4,94,100,0,9301,100,231394,279699,1.9
8920,901,4,94,100,0,8813,100,231136,279144,1.9
8930,902,4,94,100,0,8325,100,230863,278346,1.9
8940,903,4,94,100,0,7997,100,230471,277333,1.9
8950,904,4,94,100,0,7870,100,230097,276302,1.9
8960,905,4,94,100,0,8062,100,229799,275465,1.9
8970,906,4,94,100,0,8773,100,229527,274820,1.9
8980,907,4,94,100,0,10123,100,229399,274374,1.9
8990,908,4,94,100,0,12191,100,229326,274273,1.9
9000,909,4,94,100,0,15060,100,229339,274271,1.9
9010,910,4,94,100,0,18692,100,229391,274385,1.9
9020,911,4,94,100,0,23011,100,229417,274507,1.9
9030,912,4,94,100,0,27821,100,229485,274635,1.9
9040,913,4,94,100,0,32928,100,229511,274785,1.9
9050,914,4,94,100,0,38135,100,229540,274841,1.9
9060,915,4,94,100,0,43234,100,229577,274882,1.9
9070,916,4,94,100,0,47978,100,229559,274913,1.9
9080,917,4,94,100,0,52199,100,229574,274919,1.9
9090,918,4,94,100,0,55733,100,229606,275009,1.9
9100,919,4,94,100,0,58494,100,229667,275117,1.9
9110,920,4,94,100,0,60484,100,229729,275383,1.9
9120,921,4,94,100,0,61701,100,229846,275661,1.9
9130,922,4,94,100,0,62106,100,229929,275993,1.9
9140,923,4,94,100,0,61853,100,230076,276314,1.9
9150,924,4,94,100,8,60923,100,230101,276459,1.9
9160,925,4,94,100,0,59388,100,230176,276588,1.9
9170,926,4,94,100,0,57329,100,230124,276509,1.9
9180,927,4,94,100,0,54947,100,230139,276478,1.9
9190,928,4,94,100,0,52324,100,230105,276407,1.9
9200,929,4,94,100,0,49538,100,230088,276367,1.9
9210,930,4,94,100,0,46668,100,230085,276346,1.9
9220,931,4,94,100,0,43958,100,230108,276396,1.9
9230,932,4,94,100,0,41406,100,230138,276474,1.9
9240,933,4,94,100,0,39134,100,230175,276637,1.9
9250,934,4,94,100,0,37223,100,230260,276817,1.9
9260,935,4,94,100,0,35634,100,230339,276956,1.9
9270,936,4,94,100,0,34367,100,230374,277100,1.9
9280,937,4,94,100,0,33425,100,230455,277349,1.9
9290,938,4,94,100,0,32685,100,230489,277535,1.9
9300,939,4,94,100,0,32107,100,230580,277709,1.9
9310,940,4,94,100,0,31609,100,230656,277841,1.9
9320,941,4,94,100,0,31193,100,230721,278058,1.9
9330,942,4,94,100,0,30692,100,230747,278137,1.9
9340,943,4,94,100,0,30106,100,230811,278291,1.9
9350,944,4,94,100,0,29352,100,230835,278400,1.9
9360,945,4,94,100,0,28470,100,230891,278515,1.9
9370,946,4,94,100,0,27460,100,230927,278641,1.9
9380,947,4,94,100,0,26279,100,230944,278725,1.9
9390,948,4,94,100,0,24970,100,230968,278778,1.9
9400,949,4,94,100,0,23574,100,231013,278865,1.9
9410,950,4,94,100,0,22133,100,231015,278914,1.9
9420,951,4,94,100,0,20648,100,231085,279023,1.9
9430,952,4,94,100,0,19160,100,231093,279041,1.9
9440,953,4,94,100,0,17713,100,231119,279176,1.9
9450,954,4,94,100,0,16349,100,231132,279231,1.9
9460,955,4,94,100,0,15152,100,231191,279361,1.9
9470,956,4,94,100,0,14040,100,231244,279420,1.9
9480,957,4,94,100,0,13055,100,231346,279632,1.9
9490,958,4,94,100,0,12196,100,231336,279741,1.9
9500,959,4,94,100,0,11422,100,231441,279917,1.9
9510,960,4,94,100,0,10733,100,231473,279985,1.9
9520,961,4,94,100,0,10087,100,231489,280142,1.9
9530,962,4,94,100,0,9525,100,231541,280178,1.9
9540,963,4,94,100,0,8922,100,231535,280171,1.9
9550,964,4,94,100,0,8362,100,231506,280059,1.9
9560,965,4,94,100,0,7802,100,231351,279690,1.9
9570,966,4,94,100,0,7285,100,231085,279013,1.9
9580,967,4,94,100,0,6811,100,230809,278206,1.9
9590,968,4,94,100,0,6465,100,230411,277167,1.9
9600,969,4,94,100,0,6459,100,230090,276262,1.9
9610,970,4,94,100,0,6835,100,229789,275522,1.9
9620,971,4,94,100,0,7890,100,229586,275038,1.9
9630,972,4,94,100,0,9624,100,229466,274718,1.9
9640,973,4,94,100,0,12165,100,229486,274709,1.9
9650,974,4,94,100,0,15472,100,229527,274749,1.9
9660,975,4,94,100,0,19590,100,229563,274845,1.9
9670,976,4,94,100,0,24270,100,229613,275021,1.9
9680,977,4,94,100,0,29388,100,229681,275130,1.9
9690,978,4,94,100,0,34738,100,229700,275226,1.9
9700,979,4,94,100,0,40107,100,229728,275317,1.9
9710,980,4,94,100,0,45186,100,229747,275292,1.9
9720,981,4,94,100,0,49843,100,229741,275352,1.9
9730,982,4,94,100,0,53899,100,229746,275340,1.9
9740,983,4,94,100,0,57222,100,229803,275469,1.9
9750,984,4,94,100,0,59725,100,229856,275635,1.9
9760,985,4,94,100,0,61363,100,229965,275953,1.9
9770,986,4,94,100,0,62215,100,230054,276233,1.9
9780,987,4,94,100,0,61834,100,230162,276535,1.9
9790,988,4,94,100,8,61200,100,230227,276834,1.9
9800,989,4,94,100,0,59932,100,230299,276947,1.9
9810,990,4,94,100,0,58158,100,230329,276947,1.9
9820,991,4,94,100,0,55878,100,230308,276910,1.9
9830,992,4,94,100,0,53302,100,230270,276787,1.9
9840,993,4,94,100,0,50515,100,230259,276778,1.9
9850,994,4,94,100,0,47599,100,230260,276710,1.9
9860,995,4,94,100,0,44765,100,230256,276719,1.9
9870,996,4,94,100,0,42097,100,230272,276836,1.9
9880,997,4,94,100,0,39636,100,230339,276954,1.9
9890,998,4,94,100,0,37510,100,230390,277076,1.9
9900,999,4,94,100,0,35721,100,230451,277298,1.9
9910,1000,4,94,100,0,34268,100,230528,277398,1.9
9920,1001,4,94,100,0,33154,100,230558,277614,1.9
9930,1002,4,94,100,0,32250,100,230631,277756,1.9
9940,1003,4,94,100,0,31602,100,230694,277989,1.9
9950,1004,4,94,100,0,31038,100,230724,278149,1.9
9960,1005,4,94,100,0,30515,100,230804,278317,1.9
9970,1006,4,94,100,0,30034,100,230867,278500,1.9
9980,1007,4,94,100,0,29464,100,230933,278597,1.9
9990,1008,4,94,100,0,28762,100,230981,278732,1.9
10000,1009,4,94,100,0,27971,100,231028,278818,1.9
10010,1010,4,94,100,0,27002,100,231155,278924,1.9
10020,1011,4,94,100,0,25856,100,231100,279041,1.9
10030,1012,4,94,100,0,24531,100,231140,279127,1.9
10040,1013,4,94,100,0,23116,100,231159,279153,1.9
10050,1014,4,94,100,0,21655,100,231157,279220,1.9
10060,1015,4,94,100,0,20103,100,231231,279341,1.9
10070,1016,4,94,100,0,18548,100,231223,279396,1.9
10080,1017,4,94,100,0,17080,100,231274,279470,1.9
10090,1018,4,94,100,0,15700,100,231296,279578,1.9
10100,1019,4,94,100,0,14362,100,231347,279644,1.9
10110,1020,4,94,100,0,13157,100,231244,279799,1.9
10120,1021,4,94,100,0,12084,100,231438,279889,1.9
10130,1022,4,94,100,0,11100,100,231425,279993,1.9
10140,1023,4,94,100,0,10249,100,231549,280182,1.9
10150,1024,4,94,100,0,9487,100,231621,280281,1.9
10160,1025,4,94,100,0,8858,100,231650,280394,1.9
10170,1026,4,94,100,0,8274,100,231691,280491,1.9
10180,1027,4,94,100,0,7735,100,231698,280500,1.9
10190,1028,4,94,100,0,7152,100,231676,280420,1.9
10200,1029,4,94,100,0,6569,100,231531,280107,1.9
10210,1030,4,94,100,0,6032,100,231160,279498,1.9
10220,1031,4,94,100,0,5584,100,230989,278563,1.9
10230,1032,4,94,100,0,5270,100,230608,277582,1.9
10240,1033,4,94,100,0,5266,100,230234,276590,1.9
10250,1034,4,94,100,0,5617,100,229920,275743,1.9
10260,1035,4,94,100,0,6632,100,229698,275140,1.9
10270,1036,4,94,100,0,8399,100,229589,274837,1.9
10280,1037,4,94,100,0,11008,100,229573,274756,1.9
10290,1038,4,94,100,0,14459,100,229598,274824,1.9
10300,1039,4,94,100,0,18755,100,229610,274937,1.9
10310,1040,4,94,100,0,23770,100,229678,275050,1.9
10320,1041,4,94,100,0,29287,100,229728,275172,1.9
10330,1042,4,94,100,0,35136,100,229760,275249,1.9
10340,1043,4,94,100,0,40959,100,229762,275238,1.9
10350,1044,4,94,100,0,46571,100,229765,275284,1.9
10360,1045,4,94,100,0,51695,100,229789,275294,1.9
10370,1046,4,94,100,0,56281,100,229819,275350,1.9
10380,1047,4,94,100,0,60056,100,229841,275413,1.9
10390,1048,4,94,100,0,62258,100,229861,275495,1.9
10400,1049,4,94,100,0,62258,100,229938,275703,1.9
10410,1050,4,94,100,0,62258,100,230025,276016,1.9
10420,1051,4,94,100,0,62258,100,230159,276322,1.9
10430,1052,4,94,100,0,61945,100,230215,276606,1.9
10440,1053,4,94,100,8,61009,100,230294,276790,1.9
10450,1054,4,94,100,0,59527,100,230329,276890,1.9
10460,1055,4,94,100,0,57656,100,230316,276828,1.9
10470,1056,4,94,100,0,55396,100,230327,276843,1.9
10480,1057,4,94,100,0,52941,100,230288,276711,1.9
10490,1058,4,94,100,0,50330,100,230265,276669,1.9
10500,1059,4,94,100,0,47678,100,230255,276654,1.9
10510,1060,4,94,100,0,45181,100,230274,276741,1.9
10520,1061,4,94,100,0,42876,100,230298,276819,1.9
10530,1062,4,94,100,0,40802,100,230378,276922,1.9
10540,1063,4,94,100,0,39040,100,230398,277058,1.9
10550,1064,4,94,100,0,37588,100,230481,277258,1.9
10560,1065,4,94,100,0,36409,100,230539,277387,1.9
10570,1066,4,94,100,0,35463,100,230622,277587,1.9
10580,1067,4,94,100,0,34753,100,230655,277740,1.9
10590,1068,4,94,100,0,34200,100,230746,277928,1.9
10600,1069,4,94,100,0,33724,100,230774,278052,1.9
10610,1070,4,94,100,0,33286,100,230847,278264,1.9
10620,1071,4,94,100,0,32847,100,230899,278373,1.9
10630,1072,4,94,100,0,32286,100,230909,278475,1.9
10640,1073,4,94,100,0,31601,100,231003,278621,1.9
10650,1074,4,94,100,0,30754,100,231021,278743,1.9
10660,1075,4,94,100,0,29782,100,231078,278844,1.9
10670,1076,4,94,100,0,28686,100,231118,278908,1.9
10680,1077,4,94,100,0,27505,100,231106,278968,1.9
10690,1078,4,94,100,0,26160,100,231157,279066,1.9
10700,1079,4,94,100,0,24770,100,231199,279096,1.9
10710,1080,4,94,100,0,23336,100,231219,279159,1.9
10720,1081,4,94,100,0,21940,100,231241,279258,1.9
10730,1082,4,94,100,0,20582,100,231297,279323,1.9
10740,1083,4,94,100,0,19264,100,231302,279389,1.9
10750,1084,4,93,100,0,18107,100,231354,279509,1.9
10760,1085,4,93,100,0,17030,100,231376,279601,1.9
10770,1086,4,93,100,0,16075,100,231485,279782,1.9
10780,1087,4,93,100,0,15243,100,231519,279860,1.9
10790,1088,4,93,100,0,14492,100,231575,280030,1.9
10800,1089,4,93,100,0,13823,100,231586,280119,1.9
10810,1090,4,93,100,0,13194,100,231634,280211,1.9
10820,1091,4,93,100,0,12689,100,231633,280195,1.9
10830,1092,4,93,100,0,12143,100,231620,280077,1.9
10840,1093,4,93,100,0,11638,100,231413,279671,1.9
10850,1094,4,93,100,0,11174,100,231173,278942,1.9
10860,1095,4,93,100,0,10752,100,230804,278008,1.9
10870,1096,4,93,100,0,10494,100,230434,277027,1.9
10880,1097,4,93,100,0,10525,100,230078,276044,1.9
10890,1098,4,93,100,0,11008,100,229836,275317,1.9
10900,1099,4,93,100,0,12067,100,229634,274780,1.9
10910,1100,4,93,100,0,13910,100,229558,274638,1.9
10920,1101,4,93,100,0,16496,100,229511,274538,1.9
10930,1102,4,93,100,0,19868,100,229579,274651,1.9
10940,1103,4,93,100,0,23991,100,229595,274739,1.9
10950,1104,4,93,100,0,28704,100,229673,274895,1.9
10960,1105,4,93,100,0,33806,100,229694,274961,1.9
10970,1106,4,93,100,0,39134,100,229770,275082,1.9
10980,1107,4,93,100,0,44350,100,229771,275040,1.9
10990,1108,4,93,100,0,49324,100,229769,275120,1.9
11000,1109,4,93,100,0,53883,100,229715,275009,1.9
11010,1110,4,93,100,0,57814,100,229747,274923,1.9
11020,1111,4,93,100,0,61032,100,229752,275100,1.9
11030,1112,4,93,100,0,62258,100,229800,275281,1.9
11040,1113,4,93,100,0,62258,100,229853,275417,1.9
11050,1114,4,93,100,0,62258,100,230016,275768,1.9
11060,1115,4,93,100,0,62184,100,230112,276039,1.9
11070,1116,4,93,100,8,61743,100,230189,276315,1.9
11080,1117,4,93,100,0,60788,100,230239,276472,1.9
11090,1118,4,93,100,0,59393,100,230271,276587,1.9
11100,1119,4,93,100,0,57596,100,230233,276509,1.9
11110,1120,4,93,100,0,55579,100,230256,276253,1.9
11120,1121,4,93,100,0,53343,100,230214,276380,1.9
11130,1122,4,93,100,0,50959,100,230184,276355,1.9
11140,1123,4,93,100,0,48611,100,230194,276349,1.9
11150,1124,4,93,100,0,46372,100,230217,276401,1.9
11160,1125,4,93,100,0,44278,100,230248,276461,1.9
11170,1126,4,93,100,0,42440,100,230290,276607,1.9
11180,1127,4,93,100,0,40895,100,230361,276760,1.9
11190,1128,4,93,100,0,39606,100,230410,276934,1.9
11200,1129,4,93,100,0,38537,100,230442,277075,1.9
11210,1130,4,93,100,0,37726,100,230513,276995,1.9
11220,1131,4,93,100,0,37062,100,230587,277442,1.9
11230,1132,4,93,100,0,36509,100,230678,277659,1.9
11240,1133,4,93,100,0,36065,100,230734,277791,1.9
11250,1134,4,93,100,0,35621,100,230763,277922,1.9
11260,1135,4,93,100,0,35099,100,230817,278017,1.9
11270,1136,4,93,100,0,34501,100,230914,278225,1.9
11280,1137,4,93,100,0,33786,100,230902,278278,1.9
11290,1138,4,93,100,0,32918,100,230960,278378,1.9
11300,1139,4,93,100,0,31933,100,230991,278412,1.9
11310,1140,4,93,100,0,30830,100,231018,278480,1.9
11320,1141,4,93,100,0,29571,100,231033,278562,1.9
11330,1142,4,93,100,0,28308,100,231038,278662,1.9
11340,1143,4,93,100,0,27003,100,231078,278694,1.9
11350,1144,4,93,100,0,25656,100,231155,278794,1.9
11360,1145,4,93,100,0,24382,100,231171,278863,1.9
11370,1146,4,93,100,0,23106,100,231199,278954,1.9
11380,1147,4,93,100,0,21941,100,231269,279081,1.9
11390,1148,4,93,100,0,20891,100,231307,279207,1.9
11400,1149,4,93,100,0,19954,100,231358,279318,1.9
11410,1150,4,93,100,0,19092,100,231372,279445,1.9
11420,1151,4,93,100,0,18268,100,231415,279548,1.9
11430,1152,4,93,100,0,17559,100,231463,279642,1.9
11440,1153,4,93,100,0,16888,100,231470,279708,1.9
11450,1154,4,93,100,0,16255,100,231521,279754,1.9
11460,1155,4,93,100,0,15622,100,231486,279735,1.9
11470,1156,4,93,100,0,15066,100,231411,279562,1.9
11480,1157,4,93,100,0,14548,100,231149,278914,1.9
11490,1158,4,93,100,0,14069,100,230870,278144,1.9
11500,1159,4,93,100,0,13706,100,230467,277107,1.9
11510,1160,4,93,100,0,13576,100,230071,276088,1.9
11520,1161,4,93,100,0,13795,100,229751,275247,1.9
11530,1162,4,93,100,0,14520,100,229506,274640,1.9
11540,1163,4,93,100,0,15868,100,229396,274313,1.9
11550,1164,4,93,100,0,17917,100,229403,274183,1.9
11560,1165,4,93,100,0,20710,100,229422,274256,1.9
11570,1166,4,93,100,0,24249,100,229423,274427,1.9
11580,1167,4,93,100,0,28384,100,229461,274504,1.9
11590,1168,4,93,100,0,33041,100,229532,274634,1.9
11600,1169,4,93,100,0,37952,100,229553,274744,1.9
11610,1170,4,93,100,0,42915,100,229592,274795,1.9
11620,1171,4,93,100,0,47690,100,229587,274779,1.9
11630,1172,4,93,100,0,52075,100,229586,274782,1.9
11640,1173,4,93,100,0,55987,100,229534,274749,1.9
11650,1174,4,93,100,0,59226,100,229569,274843,1.9
11660,1175,4,93,100,0,61713,100,229584,274955,1.9
11670,1176,4,93,100,0,62258,100,229688,275113,1.9
11680,1177,4,93,100,0,62258,100,229700,275336,1.9
11690,1178,4,93,100,0,62113,100,229825,275673,1.9
11700,1179,4,93,100,8,61825,100,229939,275990,1.9
11710,1180,4,93,100,0,61031,100,230024,276223,1.9
11720,1181,4,93,100,0,59734,100,230077,276300,1.9
11730,1182,4,93,100,0,58077,100,230110,276382,1.9
11740,1183,4,93,100,0,56061,100,230088,276326,1.9
11750,1184,4,93,100,0,53830,100,230071,276247,1.9
11760,1185,4,93,100,0,51490,100,230049,276182,1.9
11770,1186,4,93,100,0,49114,100,230020,276188,1.9
11780,1187,4,93,100,0,46808,100,230046,276173,1.9
11790,1188,4,93,100,0,44645,100,230088,276295,1.9
11800,1189,4,93,100,0,42696,100,230138,276394,1.9
11810,1190,4,93,100,0,40962,100,230186,276561,1.9
11820,1191,4,93,100,0,39479,100,230282,276729,1.9
11830,1192,4,93,100,0,38247,100,230292,276865,1.9
11840,1193,4,93,100,0,37268,100,230369,277127,1.9
11850,1194,4,93,100,0,36506,100,230461,277314,1.9
11860,1195,4,93,100,0,35852,100,230462,277435,1.9
11870,1196,4,93,100,0,35269,100,230557,277589,1.9
11880,1197,4,93,100,0,34757,100,230599,277776,1.9
11890,1198,4,93,100,0,34207,100,230649,277914,1.9
11900,1199,4,93,100,0,33618,100,230719,278050,1.9
11910,1200,4,93,100,0,32915,100,230770,278184,1.9
11920,1201,4,93,100,0,32024,100,230808,278268,1.9
11930,1202,4,93,100,0,31055,100,230842,278400,1.9
11940,1203,4,93,100,0,29971,100,230854,278423,1.9
11950,1204,4,93,100,0,28771,100,230884,278463,1.9
11960,1205,4,93,100,0,27492,100,230904,278588,1.9
11970,1206,4,93,100,0,26135,100,230947,278626,1.9
11980,1207,4,93,100,0,24775,100,230978,278731,1.9
11990,1208,4,93,100,0,23448,100,231014,278812,1.9
12000,1209,4,93,100,0,22195,100,231084,278949,1.9
12010,1210,4,93,100,0,21014,100,231097,279052,1.9
12020,1211,4,93,100,0,19869,100,231142,279153,1.9
12030,1212,4,93,100,0,18836,100,231172,279300,1.9
12040,1213,4,93,100,0,17877,100,231238,279412,1.9
12050,1214,4,93,100,0,17068,100,231311,279577,1.9
12060,1215,4,93,100,0,16259,100,231325,279724,1.9
12070,1216,4,93,100,0,15525,100,231380,279794,1.9
12080,1217,4,93,100,0,14829,100,231411,279826,1.9
12090,1218,4,93,100,0,14208,100,231424,279837,1.9
12100,1219,4,93,100,0,13587,100,231363,279651,1.9
12110,1220,4,93,100,0,12966,100,231164,279151,1.9
12120,1221,4,93,100,0,12383,100,230870,278410,1.9
12130,1222,4,93,100,0,11914,100,230507,277481,1.9
12140,1223,4,93,100,0,11673,100,230145,276511,1.9
12150,1224,4,93,100,0,11737,100,229792,275581,1.9
12160,1225,4,93,100,0,12258,100,229574,274957,1.9
12170,1226,4,93,100,0,13351,100,229397,274558,1.9
12180,1227,4,93,100,0,15130,100,229309,274412,1.9
12190,1228,4,93,100,0,17635,100,229326,274368,1.9
12200,1229,4,93,100,0,20870,100,229412,274514,1.9
12210,1230,4,93,100,0,24722,100,229451,274609,1.9
12220,1231,4,93,100,0,29122,100,229504,274787,1.9
12230,1232,4,93,100,0,33805,100,229538,274856,1.9
12240,1233,4,93,100,0,38582,100,229554,274936,1.9
12250,1234,4,93,100,0,43294,100,229592,275018,1.9
12260,1235,4,93,100,0,47706,100,229595,275047,1.9
12270,1236,4,93,100,0,51619,100,229582,275015,1.9
12280,1237,4,93,100,0,54953,100,229614,275164,1.9
12290,1238,4,93,100,0,57552,100,229672,275272,1.9
12300,1239,4,93,100,0,59413,100,229755,275495,1.9
12310,1240,4,93,100,0,60538,100,229832,275787,1.9
12320,1241,4,93,100,0,61005,100,229955,276136,1.9
12330,1242,4,93,100,0,60736,100,230090,276419,1.9
12340,1243,4,93,100,8,59850,100,230160,276660,1.9
12350,1244,4,93,100,0,58425,100,230177,276685,1.9
12360,1245,4,93,100,0,56498,100,230202,276677,1.9
12370,1246,4,93,100,0,54224,100,230167,276607,1.9
12380,1247,4,93,100,0,51681,100,230133,276517,1.9
12390,1248,4,93,100,0,49020,100,230107,276434,1.9
12400,1249,4,93,100,0,46318,100,230132,276473,1.9
12410,1250,4,93,100,0,43730,100,230095,276510,1.9
12420,1251,4,93,100,0,41331,100,230154,276597,1.9
12430,1252,4,93,100,0,39161,100,230188,276701,1.9
12440,1253,4,93,100,0,37336,100,230261,276858,1.9
12450,1254,4,93,100,0,35818,100,230318,277034,1.9
12460,1255,4,93,100,0,34609,100,230360,277253,1.9
12470,1256,4,93,100,0,33670,100,230474,277408,1.9
12480,1257,4,93,100,0,32964,100,230519,277628,1.9
12490,1258,4,93,100,0,32412,100,230560,277804,1.9
12500,1259,4,93,100,0,31977,100,230629,277967,1.9
12510,1260,4,93,100,0,31540,100,230722,278148,1.9
12520,1261,4,93,100,0,31023,100,230760,278284,1.9
12530,1262,4,93,100,0,30423,100,230804,278429,1.9
12540,1263,4,93,100,0,29743,100,230856,278555,1.9
12550,1264,4,93,100,0,28900,100,230910,278673,1.9
12560,1265,4,93,100,0,27896,100,230934,278771,1.9
12570,1266,4,93,100,0,26768,100,231009,278861,1.9
12580,1267,4,93,100,0,25437,100,231037,279017,1.9
12590,1268,4,93,100,0,24023,100,231048,279030,1.9
12600,1269,4,93,100,0,22525,100,231075,279164,1.9
12610,1270,4,93,100,0,21024,100,231083,279137,1.9
12620,1271,4,93,100,0,19521,100,231103,279220,1.9
12630,1272,4,93,100,0,18137,100,231173,279271,1.9
12640,1273,4,93,100,0,16752,100,231222,279448,1.9
12650,1274,4,93,100,0,15487,100,231265,279496,1.9
12660,1275,4,93,100,0,14342,100,231309,279644,1.9
12670,1276,4,93,100,0,13359,100,231336,279722,1.9
12680,1277,4,93,100,0,12537,100,231381,279866,1.9
12690,1278,4,93,100,0,11796,100,231418,279977,1.9
12700,1279,4,93,100,0,11137,100,231482,280163,1.9
12710,1280,4,93,100,0,10599,100,231547,280314,1.9
12720,1281,4,93,100,0,10102,100,231608,280441,1.9
12730,1282,4,93,100,0,9605,100,231628,280460,1.9
12740,1283,4,93,100,0,9149,100,231634,280523,1.9
12750,1284,4,94,100,0,8653,100,231604,280362,1.9
12760,1285,4,94,100,0,8117,100,231447,279983,1.9
12770,1286,4,94,100,0,7581,100,231159,279186,1.9
12780,1287,4,94,100,0,7168,100,230789,278276,1.9
12790,1288,4,94,100,0,6877,100,230399,277207,1.9
12800,1289,4,94,100,0,6871,100,230052,276299,1.9
12810,1290,4,94,100,0,7311,100,229764,275525,1.9
12820,1291,4,94,100,0,8361,100,229570,275038,1.9
12830,1292,4,94,100,0,10141,100,229503,274779,1.9
12840,1293,4,94,100,0,12733,100,229503,274739,1.9
12850,1294,4,94,100,0,16059,100,229496,274759,1.9
12860,1295,4,94,100,0,20202,100,229586,274927,1.9
12870,1296,4,94,100,0,24964,100,229622,275080,1.9
12880,1297,4,94,100,0,30189,100,229698,275221,1.9
12890,1298,4,94,100,0,35555,100,229744,275291,1.9
12900,1299,4,94,100,0,40897,100,229696,275343,1.9
12910,1300,4,94,100,0,46004,100,229714,275343,1.9
12920,1301,4,94,100,0,50624,100,229729,275374,1.9
12930,1302,4,94,100,0,54586,100,229737,275417,1.9
12940,1303,4,94,100,0,57847,100,229817,275538,1.9
12950,1304,4,94,100,0,60241,100,229879,275673,1.9
12960,1305,4,94,100,0,61807,100,229989,276003,1.9
12970,1306,4,94,100,0,62258,100,230077,276330,1.9
12980,1307,4,94,100,0,62056,100,230193,276623,1.9
12990,1308,4,94,100,8,61412,100,230248,276853,1.9
13000,1309,4,94,100,0,60164,100,230302,277013,1.9
13010,1310,4,94,100,0,58355,100,230326,277040,1.9
13020,1311,4,94,100,0,56103,100,230348,277004,1.9
13030,1312,4,94,100,0,53530,100,230358,276884,1.9
13040,1313,4,94,100,0,50797,100,230282,276871,1.9
13050,1314,4,94,100,0,47981,100,230269,276800,1.9
13060,1315,4,94,100,0,45203,100,230276,276832,1.9
13070,1316,4,94,100,0,42582,100,230325,276909,1.9
13080,1317,4,94,100,0,40241,100,230353,277020,1.9
13090,1318,4,94,100,0,38178,100,230434,277155,1.9
13100,1319,4,94,100,0,36435,100,230457,277341,1.9
13110,1320,4,94,100,0,35053,100,230527,277526,1.9
13120,1321,4,94,100,0,33953,100,230604,277696,1.9
13130,1322,4,94,100,0,33136,100,230618,277900,1.9
13140,1323,4,94,100,0,32480,100,230731,278073,1.9
13150,1324,4,94,100,0,31985,100,230776,278291,1.9
13160,1325,4,94,100,0,31489,100,230866,278447,1.9
13170,1326,4,94,100,0,31032,100,230897,278588,1.9
13180,1327,4,94,100,0,30450,100,230957,278713,1.9
13190,1328,4,94,100,0,29783,100,231006,278854,1.9
13200,1329,4,94,100,0,28947,100,231071,279040,1.9
13210,1330,4,94,100,0,27943,100,231075,279041,1.9
13220,1331,4,94,100,0,26810,100,231160,279207,1.9
13230,1332,4,94,100,0,25549,100,231135,279213,1.9
13240,1333,4,94,100,0,24160,100,231199,279327,1.9
13250,1334,4,94,100,0,22643,100,231212,279404,1.9
13260,1335,4,94,100,0,21123,100,231242,279468,1.9
13270,1336,4,94,100,0,19600,100,231245,279524,1.9
13280,1337,4,94,100,0,18117,100,231301,279620,1.9
13290,1338,4,94,100,0,16717,100,231335,279697,1.9
13300,1339,4,94,100,0,15400,100,231384,279812,1.9
13310,1340,4,94,100,0,14166,100,231437,279941,1.9
13320,1341,4,94,100,0,13101,100,231467,280031,1.9
13330,1342,4,94,100,0,12204,100,231537,280203,1.9
13340,1343,4,94,100,0,11391,100,231591,280322,1.9
13350,1344,4,94,100,0,10663,100,231605,280453,1.9
13360,1345,4,94,100,0,10020,100,231679,280590,1.9
13370,1346,4,94,100,0,9419,100,231719,280725,1.9
13380,1347,4,94,100,0,8861,100,231732,280755,1.9
13390,1348,4,94,100,0,8303,100,231756,280746,1.9
13400,1349,4,94,100,0,7788,100,231742,280595,1.9
13410,1350,4,94,100,0,7190,100,231582,280179,1.9
13420,1351,4,94,100,0,6592,100,231268,279430,1.9
13430,1352,4,94,100,0,6121,100,230955,278550,1.9
13440,1353,4,94,100,0,5862,100,230557,277497,1.9
13450,1354,4,94,100,0,5900,100,230203,276577,1.9
13460,1355,4,94,100,0,6402,100,229955,275844,1.9
13470,1356,4,94,100,0,7538,100,229797,275430,1.9
13480,1357,4,94,100,0,9434,100,229693,275190,1.9
13490,1358,4,94,100,0,12175,100,229650,275099,1.9
13500,1359,4,94,100,0,15721,100,229710,275207,1.9
13510,1360,4,94,100,0,19990,100,229707,275332,1.9
13520,1361,4,94,100,0,24861,100,229801,275460,1.9
13530,1362,4,94,100,0,30170,100,229885,275540,1.9
13540,1363,4,94,100,0,35625,100,229912,275685,1.9
13550,1364,4,94,100,0,41013,100,229923,275689,1.9
13560,1365,4,94,100,0,46155,100,229921,275702,1.9
13570,1366,4,94,100,0,50790,100,229918,275720,1.9
13580,1367,4,94,100,0,54784,100,229957,275801,1.9
13590,1368,4,94,100,0,58048,100,230008,275978,1.9
13600,1369,4,94,100,0,60494,100,230113,276137,1.9
13610,1370,4,94,100,0,62081,100,230172,276435,1.9
13620,1371,4,94,100,0,62258,100,230267,276760,1.9
13630,1372,4,94,100,0,62216,100,230377,277041,1.9
13640,1373,4,94,100,8,61461,100,230455,277303,1.9
13650,1374,4,94,100,0,60078,100,230482,277351,1.9
13660,1375,4,94,100,0,58151,100,230529,277387,1.9
13670,1376,4,94,100,0,55807,100,230542,277395,1.9
13680,1377,4,94,100,0,53128,100,230481,277268,1.9
13690,1378,4,94,100,0,50238,100,230451,277197,1.9
13700,1379,4,94,100,0,47305,100,230459,277184,1.9
13710,1380,4,94,100,0,44453,100,230484,277232,1.9
13720,1381,4,94,100,0,41765,100,230478,277273,1.9
13730,1382,4,94,100,0,39283,100,230537,277447,1.9
13740,1383,4,94,100,0,37132,100,230578,277568,1.9
13750,1384,4,94,100,0,35357,100,230662,277724,1.9
13760,1385,4,94,100,0,33915,100,230710,277939,1.9
13770,1386,4,94,100,0,32810,100,230781,278108,1.9
13780,1387,4,94,100,0,31956,100,230825,278296,1.9
13790,1388,4,94,100,0,31270,100,230898,278461,1.9
13800,1389,4,94,100,0,30710,100,231005,278657,1.9
13810,1390,4,94,100,0,30234,100,231039,278845,1.9
13820,1391,4,94,100,0,29756,100,231066,278982,1.9
13830,1392,4,94,100,0,29190,100,231140,279092,1.9
13840,1393,4,94,100,0,28537,100,231141,279232,1.9
13850,1394,4,94,100,0,27751,100,231231,279347,1.9
13860,1395,4,94,100,0,26747,100,231303,279492,1.9
13870,1396,4,94,100,0,25567,100,231343,279539,1.9
13880,1397,4,94,100,0,24254,100,231323,279683,1.9
13890,1398,4,94,100,0,22807,100,231382,279761,1.9
13900,1399,4,94,100,0,21270,100,231376,279783,1.9
13910,1400,4,94,100,0,19688,100,231442,279909,1.9
13920,1401,4,94,100,0,18103,100,231489,279925,1.9
13930,1402,4,94,100,0,16604,100,231499,280024,1.9
13940,1403,4,94,100,0,15148,100,231524,280083,1.9
13950,1404,4,94,100,0,13823,100,231612,280223,1.9
13960,1405,4,94,100,0,12585,100,231653,280291,1.9
13970,1406,4,94,100,0,11478,100,231653,280372,1.9
13980,1407,4,94,100,0,10503,100,231685,280500,1.9
13990,1408,4,94,100,0,9660,100,231718,280644,1.9
14000,1409,4,94,100,0,8862,100,231776,280772,1.9
14010,1410,4,94,100,0,8239,100,231817,280907,1.9
14020,1411,4,94,100,0,7661,100,231914,280993,1.9
14030,1412,4,94,100,0,7127,100,231935,281106,1.9
14040,1413,4,94,100,0,6638,100,231949,281090,1.9
14050,1414,4,94,100,0,6106,100,231903,280955,1.9
14060,1415,4,94,100,0,5662,100,231678,280477,1.9
14070,1416,4,94,100,0,5219,100,231419,279705,1.9
14080,1417,4,94,100,0,4865,100,231071,278751,1.9
14090,1418,4,94,100,0,4687,100,230681,277680,1.9
14100,1419,4,94,100,0,4860,100,230277,276726,1.9
14110,1420,4,94,100,0,5515,100,230010,275962,1.9
14120,1421,4,94,100,0,6828,100,229808,275469,1.9
14130,1422,4,94,100,0,8975,100,229754,275262,1.9
14140,1423,4,94,100,0,11910,100,229724,275215,1.9
14150,1424,4,94,100,0,15769,100,229804,275314,1.9
14160,1425,4,94,100,0,20424,100,229828,275451,1.9
14170,1426,4,94,100,0,25704,100,229913,275616,1.9
14180,1427,4,94,100,0,31440,100,229938,275658,1.9
14190,1428,4,94,100,0,37374,100,229974,275763,1.9
14200,1429,4,94,100,0,43237,100,230029,275814,1.9
14210,1430,4,94,100,0,48754,100,230030,275811,1.9
14220,1431,4,94,100,0,53742,100,229976,275773,1.9
14230,1432,4,94,100,0,58061,100,230019,275831,1.9
14240,1433,4,94,100,0,61532,100,230062,275948,1.9
14250,1434,4,94,100,0,62258,100,230110,276095,1.9
14260,1435,4,94,100,0,62258,100,230148,276295,1.9
14270,1436,4,94,100,0,62258,100,230259,276608,1.9
14280,1437,4,94,100,0,62258,100,230351,276887,1.9
14290,1438,4,94,100,8,61681,100,230481,277206,1.9
14300,1439,4,94,100,0,60529,100,230517,277321,1.9
14310,1440,4,94,100,0,58879,100,230590,277368,1.9
14320,1441,4,94,100,0,56884,100,230535,277325,1.9
14330,1442,4,94,100,0,54545,100,230521,277268,1.9
14340,1443,4,94,100,0,52052,100,230480,277198,1.9
14350,1444,4,94,100,0,49482,100,230447,277154,1.9
14360,1445,4,94,100,0,46910,100,230484,277183,1.9
14370,1446,4,94,100,0,44489,100,230534,277292,1.9
14380,1447,4,94,100,0,42296,100,230562,277337,1.9
14390,1448,4,94,100,0,40370,100,230616,277529,1.9
14400,1449,4,94,100,0,38750,100,230669,277675,1.9
14410,1450,4,94,100,0,37359,100,230715,277812,1.9
14420,1451,4,94,100,0,36315,100,230780,277967,1.9
14430,1452,4,94,100,0,35462,100,230830,278163,1.9
14440,1453,4,94,100,0,34841,100,230919,278374,1.9
14450,1454,4,94,100,0,34296,100,230971,278516,1.9
14460,1455,4,94,100,0,33827,100,231016,278659,1.9
14470,1456,4,94,100,0,33357,100,231086,278847,1.9
14480,1457,4,94,100,0,32846,100,231146,278973,1.9
14490,1458,4,94,100,0,32253,100,231217,279121,1.9
14500,1459,4,94,100,0,31500,100,231216,279202,1.9
14510,1460,4,94,100,0,30586,100,231265,279260,1.9
14520,1461,4,94,100,0,29549,100,231307,279364,1.9
14530,1462,4,94,100,0,28390,100,231378,279419,1.9
14540,1463,4,94,100,0,27147,100,231349,279534,1.9
14550,1464,4,94,100,0,25781,100,231414,279565,1.9
14560,1465,4,94,100,0,24412,100,231430,279656,1.9
14570,1466,4,94,100,0,23039,100,231488,279757,1.9
14580,1467,4,94,100,0,21664,100,231496,279821,1.9
14590,1468,4,94,100,0,20367,100,231580,279935,1.9
14600,1469,4,94,100,0,19149,100,231578,279988,1.9
14610,1470,4,94,100,0,18049,100,231620,280133,1.9
14620,1471,4,94,100,0,17070,100,231676,280249,1.9
14630,1472,4,94,100,0,16170,100,231745,280388,1.9
14640,1473,4,94,100,0,15390,100,231808,280528,1.9
14650,1474,4,94,100,0,14691,100,231822,280627,1.9
14660,1475,4,94,100,0,14032,100,231853,280655,1.9
14670,1476,4,94,100,0,13372,100,231928,280787,1.9
14680,1477,4,94,100,0,12834,100,231908,280763,1.9
14690,1478,4,94,100,0,12256,100,231850,280545,1.9
14700,1479,4,94,100,0,11718,100,231656,280104,1.9
14710,1480,4,94,100,0,11180,100,231352,279353,1.9
14720,1481,4,94,100,0,10805,100,230966,278321,1.9
14730,1482,4,94,100,0,10591,100,230616,277301,1.9
14740,1483,4,94,100,0,10783,100,230234,276385,1.9
14750,1484,4,93,100,0,11421,100,230026,275722,1.9
14760,1485,4,93,100,0,12708,100,229849,275274,1.9
14770,1486,4,93,100,0,14725,100,229778,275094,1.9
14780,1487,4,93,100,0,17515,100,229801,275143,1.9
14790,1488,4,93,100,0,21081,100,229838,275239,1.9
14800,1489,4,93,100,0,25305,100,229898,275359,1.9
14810,1490,4,93,100,0,30112,100,229919,275489,1.9
14820,1491,4,93,100,0,35263,100,229953,275607,1.9
14830,1492,4,93,100,0,40554,100,230015,275644,1.9
14840,1493,4,93,100,0,45734,100,230017,275657,1.9
14850,1494,4,93,100,0,50551,100,230005,275651,1.9
14860,1495,4,93,100,0,54835,100,230021,275654,1.9
14870,1496,4,93,100,0,58500,100,230025,275704,1.9
14880,1497,4,93,100,0,61422,100,230009,275786,1.9
14890,1498,4,93,100,0,62258,100,230133,275971,1.9
14900,1499,4,93,100,0,62258,100,230179,276123,1.9
14910,1500,4,93,100,0,62258,100,230291,276468,1.9
14920,1501,4,93,100,0,62184,100,230395,276785,1.9
14930,1502,4,93,100,8,61555,100,230514,277032,1.9
14940,1503,4,93,100,0,60373,100,230545,277153,1.9
14950,1504,4,93,100,0,58748,100,230568,277166,1.9
14960,1505,4,93,100,0,56792,100,230562,277148,1.9
14970,1506,4,93,100,0,54578,100,230545,277113,1.9
14980,1507,4,93,100,0,52180,100,230479,276982,1.9
14990,1508,4,93,100,0,49781,100,230495,276941,1.9
15000,1509,4,93,100,0,47418,100,230491,276977,1.9
15010,1510,4,93,100,0,45164,100,230530,277063,1.9
15020,1511,4,93,100,0,43129,100,230560,277107,1.9
15030,1512,4,93,100,0,41352,100,230611,277280,1.9
15040,1513,4,93,100,0,39832,100,230681,277482,1.9
15050,1514,4,93,100,0,38608,100,230706,277597,1.9
15060,1515,4,93,100,0,37680,100,230746,277762,1.9
15070,1516,4,93,100,0,36937,100,230827,277944,1.9
15080,1517,4,93,100,0,36380,100,230917,278140,1.9
15090,1518,4,93,100,0,35896,100,230975,278290,1.9
15100,1519,4,93,100,0,35486,100,231036,278468,1.9
15110,1520,4,93,100,0,35037,100,231063,278608,1.9
15120,1521,4,93,100,0,34511,100,231107,278708,1.9
15130,1522,4,93,100,0,33944,100,231159,278858,1.9
15140,1523,4,93,100,0,33186,100,231164,278978,1.9
15150,1524,4,93,100,0,32309,100,231251,279044,1.9
15160,1525,4,93,100,0,31277,100,231315,279158,1.9
15170,1526,4,93,100,0,30088,100,231322,279163,1.9
15180,1527,4,93,100,0,28818,100,231313,279273,1.9
15190,1528,4,93,100,0,27468,100,231344,279312,1.9
15200,1529,4,93,100,0,26075,100,231332,279394,1.9
15210,1530,4,93,100,0,24717,100,231405,279470,1.9
15220,1531,4,93,100,0,23433,100,231412,279535,1.9
15230,1532,4,93,100,0,22147,100,231477,279669,1.9
15240,1533,4,93,100,0,20936,100,231477,279757,1.9
15250,1534,4,93,100,0,19877,100,231511,279848,1.9
15260,1535,4,93,100,0,18895,100,231568,279973,1.9
15270,1536,4,93,100,0,17989,100,231606,280087,1.9
15280,1537,4,93,100,0,17237,100,231629,280267,1.9
15290,1538,4,93,100,0,16563,100,231702,280434,1.9
15300,1539,4,93,100,0,15888,100,231799,280541,1.9
15310,1540,4,93,100,0,15290,100,231815,280598,1.9
15320,1541,4,93,100,0,14693,100,231821,280598,1.9
15330,1542,4,93,100,0,14134,100,231781,280536,1.9
15340,1543,4,93,100,0,13575,100,231658,280211,1.9
15350,1544,4,93,100,0,13015,100,231414,279565,1.9
15360,1545,4,93,100,0,12495,100,231065,278631,1.9
15370,1546,4,93,100,0,12092,100,230651,277549,1.9
15380,1547,4,93,100,0,12002,100,230258,276594,1.9
15390,1548,4,93,100,0,12303,100,229991,275766,1.9
15400,1549,4,93,100,0,13112,100,229784,275221,1.9
15410,1550,4,93,100,0,14626,100,229659,274943,1.9
15420,1551,4,93,100,0,16963,100,229593,274921,1.9
15430,1552,4,93,100,0,20008,100,229646,274919,1.9
15440,1553,4,93,100,0,23805,100,229738,275127,1.9
15450,1554,4,93,100,0,28200,100,229786,275220,1.9
15460,1555,4,93,100,0,33043,100,229807,275347,1.9
15470,1556,4,93,100,0,38141,100,229821,275451,1.9
15480,1557,4,93,100,0,43252,100,229850,275521,1.9
15490,1558,4,93,100,0,48096,100,229884,275496,1.9
15500,1559,4,93,100,0,52586,100,229843,275498,1.9
15510,1560,4,93,100,0,56442,100,229870,275518,1.9
15520,1561,4,93,100,0,59620,100,229894,275585,1.9
15530,1562,4,93,100,0,62042,100,229974,275724,1.9
15540,1563,4,93,100,0,62258,100,230039,275970,1.9
15550,1564,4,93,100,0,62258,100,230136,276230,1.9
15560,1565,4,93,100,0,62258,100,230231,276597,1.9
15570,1566,4,93,100,8,61782,100,230326,276882,1.9
15580,1567,4,93,100,0,60720,100,230366,277050,1.9
15590,1568,4,93,100,0,59184,100,230439,277168,1.9
15600,1569,4,93,100,0,57321,100,230459,277183,1.9
15610,1570,4,93,100,0,55092,100,230465,277076,1.9
15620,1571,4,93,100,0,52680,100,230364,277035,1.9
15630,1572,4,93,100,0,50159,100,230370,276929,1.9
15640,1573,4,93,100,0,47636,100,230365,276928,1.9
15650,1574,4,93,100,0,45221,100,230383,276962,1.9
15660,1575,4,93,100,0,42986,100,230387,277060,1.9
15670,1576,4,93,100,0,40968,100,230471,277197,1.9
15680,1577,4,93,100,0,39279,100,230533,277388,1.9
15690,1578,4,93,100,0,37881,100,230587,277523,1.9
15700,1579,4,93,100,0,36739,100,230622,277765,1.9
15710,1580,4,93,100,0,35816,100,230710,277927,1.9
15720,1581,4,93,100,0,35114,100,230808,278129,1.9
15730,1582,4,93,100,0,34559,100,230867,278349,1.9
15740,1583,4,93,100,0,34076,100,230905,278493,1.9
15750,1584,4,93,100,0,33554,100,231000,278713,1.9
15760,1585,4,93,100,0,33030,100,231060,278845,1.9
15770,1586,4,93,100,0,32428,100,231126,278958,1.9
15780,1587,4,93,100,0,31712,100,231177,279099,1.9
15790,1588,4,93,100,0,30766,100,231192,279206,1.9
15800,1589,4,93,100,0,29741,100,231233,279284,1.9
15810,1590,4,93,100,0,28523,100,231254,279332,1.9
15820,1591,4,93,100,0,27188,100,231261,279417,1.9
15830,1592,4,93,100,0,25849,100,231298,279467,1.9
15840,1593,4,93,100,0,24430,100,231340,279583,1.9
15850,1594,4,93,100,0,23009,100,231350,279591,1.9
15860,1595,4,93,100,0,21584,100,231395,279712,1.9
15870,1596,4,93,100,0,20272,100,231419,279794,1.9
15880,1597,4,93,100,0,18996,100,231481,279926,1.9
15890,1598,4,93,100,0,17834,100,231517,280014,1.9
15900,1599,4,93,100,0,16824,100,231562,280235,1.9
15910,1600,4,93,100,0,15889,100,231596,280309,1.9
15920,1601,4,93,100,0,15070,100,231683,280497,1.9
15930,1602,4,93,100,0,14365,100,231704,280570,1.9
15940,1603,4,93,100,0,13737,100,231769,280738,1.9
15950,1604,4,93,100,0,13108,100,231814,280770,1.9
15960,1605,4,93,100,0,12557,100,231854,280809,1.9
15970,1606,4,93,100,0,11967,100,231788,280582,1.9
15980,1607,4,93,100,0,11416,100,231623,280219,1.9
15990,1608,4,93,100,0,10904,100,231297,279481,1.9
16000,1609,4,93,100,0,10469,100,231001,278635,1.9
16010,1610,4,93,100,0,10188,100,230610,277574,1.9
16020,1611,4,93,100,0,10216,100,230292,276725,1.9
16030,1612,4,93,100,0,10630,100,230015,276029,1.9
16040,1613,4,93,100,0,11623,100,229827,275601,1.9
16050,1614,4,93,100,0,13312,100,229789,275344,1.9
16060,1615,4,93,100,0,15735,100,229778,275424,1.9
16070,1616,4,93,100,0,18857,100,229835,275479,1.9
16080,1617,4,93,100,0,22641,100,229883,275629,1.9
16090,1618,4,93,100,0,26939,100,229933,275706,1.9
16100,1619,4,93,100,0,31638,100,229975,275827,1.9
16110,1620,4,93,100,0,36472,100,229987,275936,1.9
16120,1621,4,93,100,0,41242,100,230025,275982,1.9
16130,1622,4,93,100,0,45749,100,230007,276088,1.9
16140,1623,4,93,100,0,49791,100,230105,276110,1.9
16150,1624,4,93,100,0,53249,100,230078,276124,1.9
16160,1625,4,93,100,0,56041,100,230169,276287,1.9
16170,1626,4,93,100,0,58087,100,230257,276572,1.9
16180,1627,4,93,100,0,59386,100,230357,276870,1.9
16190,1628,4,93,100,0,59940,100,230432,277144,1.9
16200,1629,4,93,100,0,59788,100,230562,277424,1.9
16210,1630,4,93,100,8,58931,100,230616,277621,1.9
16220,1631,4,93,100,0,57526,100,230693,277767,1.9
16230,1632,4,93,100,0,55653,100,230646,277650,1.9
16240,1633,4,93,100,0,53348,100,230671,277652,1.9
16250,1634,4,93,100,0,50730,100,230588,277553,1.9
16260,1635,4,93,100,0,47993,100,230587,277530,1.9
16270,1636,4,93,100,0,45253,100,230549,277522,1.9
16280,1637,4,93,100,0,42587,100,230593,277549,1.9
16290,1638,4,93,100,0,40153,100,230645,277653,1.9
16300,1639,4,93,100,0,37949,100,230681,277784,1.9
16310,1640,4,93,100,0,36096,100,230749,277916,1.9
16320,1641,4,93,100,0,34514,100,230697,278075,1.9
16330,1642,4,93,100,0,33284,100,230853,278212,1.9
16340,1643,4,93,100,0,32368,100,230940,278463,1.9
16350,1644,4,93,100,0,31649,100,230961,278621,1.9
16360,1645,4,93,100,0,31047,100,231001,278803,1.9
16370,1646,4,93,100,0,30603,100,231096,278952,1.9
16380,1647,4,93,100,0,30197,100,231136,279136,1.9
16390,1648,4,93,100,0,29750,100,231192,279247,1.9
16400,1649,4,93,100,0,29221,100,231284,279451,1.9
16410,1650,4,93,100,0,28610,100,231294,279571,1.9
16420,1651,4,93,100,0,27835,100,231269,279732,1.9
16430,1652,4,93,100,0,26895,100,231404,279755,1.9
16440,1653,4,93,100,0,25791,100,231474,279910,1.9
16450,1654,4,93,100,0,24563,100,231461,279952,1.9
16460,1655,4,93,100,0,23250,100,231523,279994,1.9
16470,1656,4,93,100,0,21813,100,231510,280091,1.9
16480,1657,4,93,100,0,20332,100,231541,280197,1.9
16490,1658,4,93,100,0,18891,100,231561,280223,1.9
16500,1659,4,93,100,0,17447,100,231625,280312,1.9
16510,1660,4,93,100,0,16125,100,231664,280453,1.9
16520,1661,4,93,100,0,14885,100,231687,280491,1.9
16530,1662,4,93,100,0,13725,100,231696,280610,1.9
16540,1663,4,93,100,0,12730,100,231843,280813,1.9
16550,1664,4,93,100,0,11857,100,231873,280920,1.9
16560,1665,4,93,100,0,11066,100,231919,281069,1.9
16570,1666,4,93,100,0,10358,100,231987,281237,1.9
16580,1667,4,93,100,0,9774,100,231980,281311,1.9
16590,1668,4,93,100,0,9148,100,232046,281381,1.9
16600,1669,4,93,100,0,8564,100,232072,281396,1.9
16610,1670,4,93,100,0,7981,100,232038,281335,1.9
16620,1671,4,93,100,0,7440,100,231930,281005,1.9
16630,1672,4,93,100,0,6940,100,231648,280358,1.9
16640,1673,4,93,100,0,6440,100,231323,279441,1.9
16650,1674,4,93,100,0,6106,100,230942,278390,1.9
16660,1675,4,93,100,0,6019,100,230598,277456,1.9
16670,1676,4,93,100,0,6343,100,230226,276612,1.9
16680,1677,4,93,100,0,7283,100,230027,276067,1.9
16690,1678,4,93,100,0,8962,100,229964,275786,1.9
16700,1679,4,93,100,0,11423,100,229917,275705,1.9
16710,1680,4,93,100,0,14665,100,229924,275756,1.9
16720,1681,4,93,100,0,18692,100,229970,275807,1.9
16730,1682,4,93,100,0,23344,100,230024,275950,1.9
16740,1683,4,93,100,0,28503,100,230102,276091,1.9
16750,1684,4,93,100,0,33887,100,230148,276245,1.9
16760,1685,4,93,100,0,39289,100,230177,276295,1.9
16770,1686,4,93,100,0,44455,100,230177,276322,1.9
16780,1687,4,93,100,0,49170,100,230184,276357,1.9
16790,1688,4,93,100,0,53305,100,230221,276395,1.9
16800,1689,4,93,100,0,56731,100,230250,276512,1.9
16810,1690,4,93,100,0,59363,100,230313,276694,1.9
16820,1691,4,93,100,0,61158,100,230417,276939,1.9
16830,1692,4,93,100,0,62075,100,230491,277309,1.9
16840,1693,4,93,100,0,61887,100,230614,277568,1.9
16850,1694,4,93,100,8,61271,100,230707,277808,1.9
16860,1695,4,93,100,0,60038,100,230731,277930,1.9
16870,1696,4,93,100,0,58231,100,230765,277975,1.9
16880,1697,4,93,100,0,56015,100,230734,277875,1.9
16890,1698,4,93,100,0,53429,100,230725,277819,1.9
16900,1699,4,93,100,0,50638,100,230721,277724,1.9
16910,1700,4,93,100,0,47721,100,230657,277728,1.9
16920,1701,4,93,100,0,44884,100,230668,277675,1.9
16930,1702,4,93,100,0,42208,100,230717,277800,1.9
16940,1703,4,93,100,0,39775,100,230771,277926,1.9
16950,1704,4,93,100,0,37668,100,230819,278048,1.9
16960,1705,4,93,100,0,35929,100,230879,278216,1.9
16970,1706,4,93,100,0,34559,100,230948,278420,1.9
16980,1707,4,93,100,0,33435,100,230967,278603,1.9
16990,1708,4,93,100,0,32641,100,231069,278793,1.9
17000,1709,4,93,100,0,32012,100,231129,278951,1.9
17010,1710,4,93,100,0,31507,100,231181,279148,1.9
17020,1711,4,93,100,0,31084,100,231229,279269,1.9
17030,1712,4,93,100,0,30659,100,231288,279456,1.9
17040,1713,4,93,100,0,30106,100,231301,279601,1.9
17050,1714,4,93,100,0,29466,100,231378,279709,1.9
17060,1715,4,93,100,0,28697,100,231410,279791,1.9
17070,1716,4,93,100,0,27714,100,231476,279924,1.9
17080,1717,4,93,100,0,26600,100,231501,279975,1.9
17090,1718,4,93,100,0,25355,100,231519,280032,1.9
17100,1719,4,93,100,0,24022,100,231551,280113,1.9
17110,1720,4,93,100,0,22516,100,231585,280225,1.9
17120,1721,4,93,100,0,21049,100,231580,280302,1.9
17130,1722,4,93,100,0,19580,100,231639,280368,1.9
17140,1723,4,93,100,0,18109,100,231684,280457,1.9
17150,1724,4,93,100,0,16680,100,231728,280541,1.9
17160,1725,4,93,100,0,15378,100,231776,280660,1.9
17170,1726,4,93,100,0,14162,100,231822,280828,1.9
17180,1727,4,93,100,0,13117,100,231812,280915,1.9
17190,1728,4,93,100,0,12158,100,231918,281095,1.9
17200,1729,4,93,100,0,11329,100,231949,281139,1.9
17210,1730,4,93,100,0,10543,100,231960,281287,1.9
17220,1731,4,93,100,0,9886,100,232037,281390,1.9
17230,1732,4,93,100,0,9187,100,232013,281274,1.9
17240,1733,4,93,100,0,8531,100,231922,280972,1.9
17250,1734,4,93,100,0,7962,100,231681,280474,1.9
17260,1735,4,93,100,0,7437,100,231378,279674,1.9
17270,1736,4,93,100,0,7084,100,231052,278724,1.9
17280,1737,4,93,100,0,6991,100,230711,277790,1.9
17290,1738,4,93,100,0,7330,100,230409,276973,1.9
17300,1739,4,93,100,0,8142,100,230179,276371,1.9
17310,1740,4,93,100,0,9645,100,230018,276070,1.9
17320,1741,4,93,100,0,11924,100,230003,275777,1.9
17330,1742,4,93,100,0,14981,100,229989,275920,1.9
17340,1743,4,93,100,0,18862,100,230055,276054,1.9
17350,1744,4,93,100,0,23398,100,230145,276206,1.9
17360,1745,4,93,100,0,28423,100,230170,276339,1.9
17370,1746,4,93,100,0,33725,100,230230,276446,1.9
17380,1747,4,93,100,0,39132,100,230213,276491,1.9
17390,1748,4,93,100,0,44379,100,230250,276573,1.9
17400,1749,4,93,100,0,49153,100,230290,276601,1.9
17410,1750,4,93,100,0,53361,100,230291,276647,1.9
17420,1751,4,93,100,0,56825,100,230296,276700,1.9
17430,1752,4,93,100,0,59543,100,230397,276932,1.9
17440,1753,4,93,100,0,61383,100,230475,277166,1.9
17450,1754,4,93,100,0,62258,100,230575,277511,1.9
17460,1755,4,93,100,0,62086,100,230665,277778,1.9
17470,1756,4,93,100,8,61573,100,230739,278095,1.9
17480,1757,4,93,100,0,60375,100,230797,278176,1.9
17490,1758,4,93,100,0,58623,100,230881,278267,1.9
17500,1759,4,93,100,0,56402,100,230811,278176,1.9
17510,1760,4,93,100,0,53796,100,230821,278099,1.9
17520,1761,4,93,100,0,50976,100,230764,278018,1.9
17530,1762,4,93,100,0,48070,100,230769,277998,1.9
17540,1763,4,93,100,0,45161,100,230744,277989,1.9
17550,1764,4,93,100,0,42333,100,230807,278073,1.9
17560,1765,4,93,100,0,39801,100,230845,278186,1.9
17570,1766,4,93,100,0,37565,100,230899,278349,1.9
17580,1767,4,93,100,0,35711,100,230958,278422,1.9
17590,1768,4,93,100,0,34199,100,231006,278679,1.9
17600,1769,4,93,100,0,33028,100,231058,278817,1.9
17610,1770,4,93,100,0,32114,100,231110,279045,1.9
17620,1771,4,93,100,0,31458,100,231212,279217,1.9
17630,1772,4,93,100,0,30931,100,231254,279396,1.9
17640,1773,4,93,100,0,30446,100,231313,279544,1.9
17650,1774,4,93,100,0,30003,100,231396,279760,1.9
17660,1775,4,93,100,0,29515,100,231478,279855,1.9
17670,1776,4,93,100,0,28848,100,231472,279996,1.9
17680,1777,4,93,100,0,28092,100,231525,280055,1.9
17690,1778,4,93,100,0,27157,100,231578,280149,1.9
17700,1779,4,93,100,0,26086,100,231578,280267,1.9
17710,1780,4,93,100,0,24791,100,231647,280316,1.9
17720,1781,4,93,100,0,23360,100,231663,280353,1.9
17730,1782,4,93,100,0,21927,100,231687,280485,1.9
17740,1783,4,93,100,0,20402,100,231728,280491,1.9
17750,1784,4,93,100,0,18919,100,231759,280621,1.9
17760,1785,4,93,100,0,17434,100,231757,280714,1.9
17770,1786,4,93,100,0,15993,100,231833,280807,1.9
17780,1787,4,93,100,0,14685,100,231828,280910,1.9
17790,1788,4,93,100,0,13466,100,231935,281130,1.9
17800,1789,4,93,100,0,12381,100,231978,281191,1.9
17810,1790,4,93,100,0,11386,100,232029,281345,1.9
17820,1791,4,93,100,0,10525,100,232016,281370,1.9
17830,1792,4,93,100,0,9709,100,232096,281458,1.9
17840,1793,4,93,100,0,8984,100,232043,281347,1.9
17850,1794,4,93,100,0,8348,100,231957,281076,1.9
17860,1795,4,93,100,0,7803,100,231674,280414,1.9
17870,1796,4,93,100,0,7347,100,231365,279593,1.9
17880,1797,4,93,100,0,7027,100,231012,278581,1.9
17890,1798,4,93,100,0,7021,100,230680,277622,1.9
17900,1799,4,93,100,0,7463,100,230324,276797,1.9
17910,1800,4,93,100,0,8487,100,230109,276203,1.9
17920,1801,4,93,100,0,10272,100,230001,275854,1.9
17930,1802,4,93,100,0,12909,100,229982,275809,1.9
17940,1803,4,93,100,0,16355,100,229979,275780,1.9
17950,1804,4,93,100,0,20659,100,230039,275986,1.9
17960,1805,4,93,100,0,25645,100,230103,276039,1.9
17970,1806,4,93,100,0,31141,100,230158,276213,1.9
17980,1807,4,93,100,0,36884,100,230185,276297,1.9
17990,1808,4,93,100,0,42643,100,230189,276347,1.9
18000,1809,4,93,100,0,48186,100,230209,276317,1.9
18010,1810,4,93,100,0,53279,100,230198,276323,1.9
18020,1811,4,93,100,0,57735,100,230192,276373,1.9
18030,1812,4,93,100,0,61416,100,230214,276434,1.9
18040,1813,4,93,100,0,62258,100,230259,276528,1.9
18050,1814,4,93,100,0,62258,100,230355,276730,1.9
18060,1815,4,93,100,0,62258,100,230451,277051,1.9
18070,1816,4,93,100,0,62106,100,230559,277414,1.9
18080,1817,4,93,100,8,61764,100,230694,277698,1.9
18090,1818,4,93,100,0,60853,100,230792,277930,1.9
18100,1819,4,93,100,0,59373,100,230790,278001,1.9
18110,1820,4,93,100,0,57515,100,230823,277945,1.9
18120,1821,4,93,100,0,55316,100,230750,277855,1.9
18130,1822,4,93,100,0,52852,100,230718,277760,1.9
18140,1823,4,93,100,0,50274,100,230662,277662,1.9
18150,1824,4,93,100,0,47694,100,230677,277703,1.9
18160,1825,4,93,100,0,45226,100,230679,277728,1.9
18170,1826,4,93,100,0,42946,100,230747,277842,1.9
18180,1827,4,93,100,0,40891,100,230792,277899,1.9
18190,1828,4,93,100,0,39176,100,230864,278130,1.9
18200,1829,4,93,100,0,37726,100,230884,278265,1.9
18210,1830,4,93,100,0,36618,100,230999,278415,1.9
18220,1831,4,93,100,0,35776,100,230997,278598,1.9
18230,1832,4,93,100,0,35086,100,231098,278798,1.9
18240,1833,4,93,100,0,34587,100,231136,278936,1.9
18250,1834,4,93,100,0,34241,100,231205,279109,1.9
18260,1835,4,93,100,0,33855,100,231257,279234,1.9
18270,1836,4,93,100,0,33429,100,231319,279419,1.9
18280,1837,4,93,100,0,32923,100,231351,279479,1.9
18290,1838,4,93,100,0,32337,100,231412,279588,1.9
18300,1839,4,93,100,0,31553,100,231426,279628,1.9
18310,1840,4,93,100,0,30648,100,231473,279744,1.9
18320,1841,4,93,100,0,29622,100,231466,279798,1.9
18330,1842,4,93,100,0,28475,100,231529,279847,1.9
18340,1843,4,93,100,0,27245,100,231549,279952,1.9
18350,1844,4,93,100,0,25933,100,231589,280050,1.9
18360,1845,4,93,100,0,24618,100,231617,280166,1.9
18370,1846,4,93,100,0,23379,100,231680,280206,1.9
18380,1847,4,93,100,0,22137,100,231711,280349,1.9
18390,1848,4,93,100,0,20933,100,231804,280493,1.9
18400,1849,4,93,100,0,19806,100,231817,280578,1.9
18410,1850,4,93,100,0,18797,100,231929,280717,1.9
18420,1851,4,93,100,0,17827,100,231956,280794,1.9
18430,1852,4,93,100,0,16976,100,231937,280833,1.9
18440,1853,4,93,100,0,16164,100,231918,280687,1.9
18450,1854,4,93,100,0,15431,100,231776,280383,1.9
18460,1855,4,93,100,0,14778,100,231536,279735,1.9
18470,1856,4,93,100,0,14204,100,231195,278913,1.9
18480,1857,4,93,100,0,13831,100,230840,277907,1.9
18490,1858,4,93,100,0,13777,100,230455,276919,1.9
18500,1859,4,93,100,0,14124,100,230147,276175,1.9
18510,1860,4,93,100,0,15073,100,229975,275621,1.9
18520,1861,4,93,100,0,16664,100,229887,275357,1.9
18530,1862,4,93,100,0,18979,100,229867,275327,1.9
18540,1863,4,93,100,0,22061,100,229880,275366,1.9
18550,1864,4,93,100,0,25915,100,229919,275448,1.9
18560,1865,4,93,100,0,30344,100,229990,275610,1.9
18570,1866,4,93,100,0,35154,100,230002,275742,1.9
18580,1867,4,93,100,0,40181,100,230029,275773,1.9
18590,1868,4,93,100,0,45180,100,230048,275815,1.9
18600,1869,4,93,100,0,49983,100,230061,275856,1.9
18610,1870,4,93,100,0,54340,100,230063,275825,1.9
18620,1871,4,93,100,0,58127,100,230107,275875,1.9
18630,1872,4,93,100,0,61219,100,230108,275952,1.9
18640,1873,4,93,100,0,62258,100,230153,276032,1.9
18650,1874,4,93,100,0,62258,100,230225,276291,1.9
18660,1875,4,93,100,0,62258,100,230354,276585,1.9
18670,1876,4,93,100,0,62186,100,230414,276839,1.9
18680,1877,4,93,100,8,61757,100,230521,277126,1.9
18690,1878,4,93,100,0,60792,100,230574,277317,1.9
18700,1879,4,93,100,0,59327,100,230624,277378,1.9
18710,1880,4,93,100,0,57541,100,230598,277319,1.9
18720,1881,4,93,100,0,55471,100,230559,277255,1.9
18730,1882,4,93,100,0,53223,100,230546,277117,1.9
18740,1883,4,93,100,0,50904,100,230508,277105,1.9
18750,1884,4,94,100,0,48583,100,230491,277111,1.9
18760,1885,4,94,100,0,46369,100,230538,277176,1.9
18770,1886,4,94,100,0,44331,100,230563,277270,1.9
18780,1887,4,94,100,0,42542,100,230597,277362,1.9
18790,1888,4,94,100,0,41039,100,230689,277514,1.9
18800,1889,4,94,100,0,39785,100,230697,277700,1.9
18810,1890,4,94,100,0,38782,100,230809,277873,1.9
18820,1891,4,94,100,0,37993,100,230866,278039,1.9
18830,1892,4,94,100,0,37420,100,230917,278197,1.9
18840,1893,4,94,100,0,36955,100,230972,278392,1.9
18850,1894,4,94,100,0,36524,100,231032,278506,1.9
18860,1895,4,94,100,0,36129,100,231086,278685,1.9
18870,1896,4,94,100,0,35659,100,231092,278723,1.9
18880,1897,4,94,100,0,35114,100,231121,278807,1.9
18890,1898,4,94,100,0,34457,100,231119,278886,1.9
18900,1899,4,94,100,0,33650,100,231149,279006,1.9
18910,1900,4,94,100,0,32767,100,231165,279034,1.9
18920,1901,4,94,100,0,31732,100,231218,279134,1.9
18930,1902,4,94,100,0,30657,100,231243,279185,1.9
18940,1903,4,94,100,0,29503,100,231281,279319,1.9
18950,1904,4,94,100,0,28346,100,231321,279427,1.9
18960,1905,4,94,100,0,27148,100,231374,279550,1.9
18970,1906,4,94,100,0,25984,100,231434,279722,1.9
18980,1907,4,94,100,0,24817,100,231464,279803,1.9
18990,1908,4,94,100,0,23722,100,231511,279968,1.9
19000,1909,4,94,100,0,22662,100,231562,280022,1.9
19010,1910,4,94,100,0,21675,100,231605,280118,1.9
19020,1911,4,94,100,0,20761,100,231611,280175,1.9
19030,1912,4,94,100,0,19846,100,231592,280108,1.9
19040,1913,4,94,100,0,19042,100,231463,279813,1.9
19050,1914,4,94,100,0,18276,100,231188,279240,1.9
19060,1915,4,94,100,0,17583,100,230901,278365,1.9
19070,1916,4,94,100,0,17079,100,230529,277380,1.9
19080,1917,4,94,100,0,16876,100,230167,276405,1.9
19090,1918,4,94,100,0,17050,100,229852,275627,1.9
19100,1919,4,94,100,0,17754,100,229662,275130,1.9
19110,1920,4,94,100,0,19063,100,229540,274809,1.9
19120,1921,4,94,100,0,21132,100,229572,274831,1.9
19130,1922,4,94,100,0,23887,100,229517,274836,1.9
19140,1923,4,94,100,0,27332,100,229602,274989,1.9
19150,1924,4,94,100,0,31358,100,229649,275091,1.9
19160,1925,4,94,100,0,35819,100,229697,275202,1.9
19170,1926,4,94,100,0,40409,100,229719,275282,1.9
19180,1927,4,94,100,0,45047,100,229734,275355,1.9
19190,1928,4,94,100,0,49501,100,229705,275336,1.9
19200,1929,4,94,100,0,53535,100,229739,275386,1.9
19210,1930,4,94,100,0,57070,100,229738,275393,1.9
19220,1931,4,94,100,0,59950,100,229764,275485,1.9
19230,1932,4,94,100,0,62175,100,229830,275617,1.9
19240,1933,4,94,100,0,62258,100,229921,275888,1.9
19250,1934,4,94,100,0,62258,100,230022,276181,1.9
19260,1935,4,94,100,0,62222,100,230105,276535,1.9
19270,1936,4,94,100,8,61726,100,230215,276750,1.9
19280,1937,4,94,100,0,60733,100,230280,276913,1.9
19290,1938,4,94,100,0,59245,100,230236,276888,1.9
19300,1939,4,94,100,0,57404,100,230267,276890,1.9
19310,1940,4,94,100,0,55281,100,230255,276802,1.9
19320,1941,4,94,100,0,52945,100,230200,276743,1.9
19330,1942,4,94,100,0,50574,100,230179,276655,1.9
19340,1943,4,94,100,0,48202,100,230177,276683,1.9
19350,1944,4,94,100,0,45970,100,230192,276725,1.9
19360,1945,4,94,100,0,43913,100,230263,276867,1.9
19370,1946,4,94,100,0,42104,100,230279,276991,1.9
19380,1947,4,94,100,0,40541,100,230390,277199,1.9
19390,1948,4,94,100,0,39297,100,230418,277379,1.9
19400,1949,4,94,100,0,38265,100,230519,277554,1.9
19410,1950,4,94,100,0,37482,100,230559,277718,1.9
19420,1951,4,94,100,0,36841,100,230615,277958,1.9
19430,1952,4,94,100,0,36379,100,230660,278112,1.9
19440,1953,4,94,100,0,35915,100,230755,278231,1.9
19450,1954,4,94,100,0,35413,100,230755,278354,1.9
19460,1955,4,94,100,0,34910,100,230795,278492,1.9
19470,1956,4,94,100,0,34259,100,230840,278576,1.9
19480,1957,4,94,100,0,33496,100,230920,278692,1.9
19490,1958,4,94,100,0,32621,100,230936,278777,1.9
19500,1959,4,94,100,0,31633,100,230985,278894,1.9
19510,1960,4,94,100,0,30531,100,231010,278969,1.9
19520,1961,4,94,100,0,29351,100,231066,279069,1.9
19530,1962,4,94,100,0,28058,100,231093,279174,1.9
19540,1963,4,94,100,0,26761,100,231118,279244,1.9
19550,1964,4,94,100,0,25497,100,231168,279380,1.9
19560,1965,4,94,100,0,24230,100,231206,279507,1.9
19570,1966,4,94,100,0,22997,100,231259,279661,1.9
19580,1967,4,94,100,0,21798,100,231333,279767,1.9
19590,1968,4,94,100,0,20672,100,231392,279869,1.9
19600,1969,4,94,100,0,19656,100,231431,279941,1.9
19610,1970,4,94,100,0,18675,100,231432,279955,1.9
19620,1971,4,94,100,0,17768,100,231452,279982,1.9
19630,1972,4,94,100,0,16971,100,231341,279717,1.9
19640,1973,4,94,100,0,16249,100,231105,279243,1.9
19650,1974,4,94,100,0,15600,100,230836,278473,1.9
19660,1975,4,94,100,0,15138,100,230508,277548,1.9
19670,1976,4,94,100,0,14900,100,230154,276612,1.9
19680,1977,4,94,100,0,15035,100,229850,275815,1.9
19690,1978,4,94,100,0,15620,100,229611,275277,1.9
19700,1979,4,94,100,0,16804,100,229500,274931,1.9
19710,1980,4,94,100,0,18626,100,229487,274842,1.9
19720,1981,4,94,100,0,21163,100,229498,274853,1.9
19730,1982,4,94,100,0,24344,100,229525,274961,1.9
19740,1983,4,94,100,0,28097,100,229551,275096,1.9
19750,1984,4,94,100,0,32239,100,229647,275211,1.9
19760,1985,4,94,100,0,36623,100,229654,275327,1.9
19770,1986,4,94,100,0,41058,100,229713,275401,1.9
19780,1987,4,94,100,0,45314,100,229719,275495,1.9
19790,1988,4,94,100,0,49309,100,229727,275533,1.9
19800,1989,4,94,100,0,52852,100,229795,275621,1.9
19810,1990,4,94,100,0,55748,100,229831,275744,1.9
19820,1991,4,94,100,0,57959,100,229902,275936,1.9
19830,1992,4,94,100,0,59447,100,229964,276229,1.9
19840,1993,4,94,100,0,60249,100,230109,276518,1.9
19850,1994,4,94,100,0,60329,100,230199,276801,1.9
19860,1995,4,94,100,8,59762,100,230259,277030,1.9
19870,1996,4,94,100,0,58628,100,230290,277086,1.9
19880,1997,4,94,100,0,57000,100,230300,277090,1.9
19890,1998,4,94,100,0,54918,100,230264,276998,1.9
19900,1999,4,94,100,0,52532,100,230246,276939,1.9
19910,2000,4,94,100,0,49994,100,230210,276830,1.9
19920,2001,4,94,100,0,47302,100,230182,276819,1.9
19930,2002,4,94,100,0,44760,100,230172,276857,1.9
19940,2003,4,94,100,0,42328,100,230229,276912,1.9
19950,2004,4,94,100,0,40197,100,230265,277061,1.9
19960,2005,4,94,100,0,38329,100,230332,277214,1.9
19970,2006,4,94,100,0,36801,100,230391,277334,1.9
19980,2007,4,94,100,0,35577,100,230487,277527,1.9
19990,2008,4,94,100,0,34657,100,230484,277723,1.9
20000,2009,4,94,100,0,33926,100,230585,277863,1.9
20010,2010,4,94,100,0,33386,100,230639,278113,1.9
20020,2011,4,94,100,0,32961,100,230703,278188,1.9
20030,2012,4,94,100,0,32612,100,230728,278340,1.9
20040,2013,4,94,100,0,32222,100,230800,278474,1.9
20050,2014,4,94,100,0,31792,100,230862,278588,1.9
20060,2015,4,94,100,0,31203,100,230884,278716,1.9
20070,2016,4,94,100,0,30457,100,230941,278800,1.9
20080,2017,4,94,100,0,29589,100,230994,278916,1.9
20090,2018,4,94,100,0,28601,100,231036,279025,1.9
20100,2019,4,94,100,0,27414,100,231076,279093,1.9
20110,2020,4,94,100,0,26183,100,231101,279180,1.9
20120,2021,4,94,100,0,24831,100,231142,279266,1.9
20130,2022,4,94,100,0,23475,100,231162,279366,1.9
20140,2023,4,94,100,0,22117,100,231175,279485,1.9
20150,2024,4,94,100,0,20836,100,231273,279581,1.9
20160,2025,4,94,100,0,19553,100,231291,279732,1.9
20170,2026,4,94,100,0,18307,100,231359,279835,1.9
20180,2027,4,94,100,0,17180,100,231418,279957,1.9
20190,2028,4,94,100,0,16092,100,231414,280014,1.9
20200,2029,4,94,100,0,15122,100,231434,280006,1.9
20210,2030,4,94,100,0,14231,100,231432,280028,1.9
20220,2031,4,94,100,0,13420,100,231322,279789,1.9
20230,2032,4,94,100,0,12649,100,231164,279289,1.9
20240,2033,4,94,100,0,12038,100,230820,278467,1.9
20250,2034,4,94,100,0,11626,100,230513,277566,1.9
20260,2035,4,94,100,0,11534,100,230097,276612,1.9
20270,2036,4,94,100,0,11762,100,229818,275870,1.9
20280,2037,4,94,100,0,12509,100,229617,275297,1.9
20290,2038,4,94,100,0,13897,100,229479,274945,1.9
20300,2039,4,94,100,0,15967,100,229430,274882,1.9
20310,2040,4,94,100,0,18799,100,229448,274907,1.9
20320,2041,4,94,100,0,22359,100,229512,274995,1.9
20330,2042,4,94,100,0,26448,100,229531,275099,1.9
20340,2043,4,94,100,0,30993,100,229611,275239,1.9
20350,2044,4,94,100,0,35797,100,229656,275326,1.9
20360,2045,4,94,100,0,40656,100,229658,275373,1.9
20370,2046,4,94,100,0,45323,100,229704,275470,1.9
20380,2047,4,94,100,0,49592,100,229694,275497,1.9
20390,2048,4,94,100,0,53294,100,229718,275589,1.9
20400,2049,4,94,100,0,56388,100,229757,275758,1.9
20410,2050,4,94,100,0,58789,100,229875,275980,1.9
20420,2051,4,94,100,0,60417,100,229939,276260,1.9
20430,2052,4,94,100,0,61231,100,230079,276595,1.9
20440,2053,4,94,100,0,61355,100,230158,276859,1.9
20450,2054,4,94,100,8,60789,100,230252,277101,1.9
20460,2055,4,94,100,0,59575,100,230275,277091,1.9
20470,2056,4,94,100,0,57794,100,230285,277140,1.9
20480,2057,4,94,100,0,55528,100,230276,277064,1.9
20490,2058,4,94,100,0,52939,100,230221,276918,1.9
20500,2059,4,94,100,0,50146,100,230180,276806,1.9
20510,2060,4,94,100,0,47311,100,230185,276866,1.9
20520,2061,4,94,100,0,44513,100,230185,276858,1.9
20530,2062,4,94,100,0,41956,100,230226,276956,1.9
20540,2063,4,94,100,0,39638,100,230285,277102,1.9
20550,2064,4,94,100,0,37642,100,230347,277280,1.9
20560,2065,4,94,100,0,36009,100,230387,277409,1.9
20570,2066,4,94,100,0,34699,100,230470,277604,1.9
20580,2067,4,94,100,0,33714,100,230546,277796,1.9
20590,2068,4,94,100,0,32973,100,230545,277950,1.9
20600,2069,4,94,100,0,32436,100,230611,278112,1.9
20610,2070,4,94,100,0,32063,100,230682,278256,1.9
20620,2071,4,94,100,0,31646,100,230756,278390,1.9
20630,2072,4,94,100,0,31270,100,230810,278576,1.9
20640,2073,4,94,100,0,30809,100,230858,278652,1.9
20650,2074,4,94,100,0,30179,100,230887,278758,1.9
20660,2075,4,94,100,0,29422,100,230928,278787,1.9
20670,2076,4,94,100,0,28494,100,230936,278938,1.9
20680,2077,4,94,100,0,27438,100,230984,278987,1.9
20690,2078,4,94,100,0,26253,100,231010,279127,1.9
20700,2079,4,94,100,0,25023,100,231039,279167,1.9
20710,2080,4,94,100,0,23706,100,231084,279301,1.9
20720,2081,4,94,100,0,22386,100,231134,279401,1.9
20730,2082,4,94,100,0,20979,100,231218,279523,1.9
20740,2083,4,94,100,0,19612,100,231226,279640,1.9
20750,2084,4,95,100,0,18328,100,231303,279807,1.9
20760,2085,4,95,100,0,17085,100,231351,279883,1.9
20770,2086,4,95,100,0,15926,100,231362,280025,1.9
20780,2087,4,95,100,0,14852,100,231428,279987,1.9
20790,2088,4,95,100,0,13819,100,231452,280037,1.9
20800,2089,4,95,100,0,12914,100,231359,279873,1.9
20810,2090,4,95,100,0,12051,100,231203,279513,1.9
20820,2091,4,95,100,0,11316,100,230937,278867,1.9
20830,2092,4,95,100,0,10751,100,230637,278000,1.9
20840,2093,4,95,100,0,10442,100,230279,277077,1.9
20850,2094,4,95,100,0,10431,100,229947,276189,1.9
20860,2095,4,95,100,0,10932,100,229662,275490,1.9
20870,2096,4,95,100,0,12071,100,229500,275095,1.9
20880,2097,4,95,100,0,13893,100,229417,274836,1.9
20890,2098,4,95,100,0,16484,100,229403,274877,1.9
20900,2099,4,95,100,0,19847,100,229439,274906,1.9
20910,2100,4,95,100,0,23856,100,229493,275095,1.9
20920,2101,4,95,100,0,28519,100,229547,275154,1.9
20930,2102,4,95,100,0,33541,100,229626,275303,1.9
20940,2103,4,95,100,0,38710,100,229621,275390,1.9
20950,2104,4,95,100,0,43762,100,229687,275447,1.9
20960,2105,4,95,100,0,48564,100,229685,275486,1.9
20970,2106,4,95,100,0,52851,100,229748,275613,1.9
20980,2107,4,95,100,0,56447,100,229722,275626,1.9
20990,2108,4,95,100,0,59305,100,229783,275791,1.9
21000,2109,4,95,100,0,61382,100,229866,276038,1.9
21010,2110,4,95,100,0,62258,100,230004,276341,1.9
21020,2111,4,95,100,0,61844,100,230067,276614,1.9
21030,2112,4,95,100,0,61515,100,230185,276878,1.9
21040,2113,4,95,100,8,60608,100,230223,277028,1.9
21050,2114,4,95,100,0,59084,100,230291,277030,1.9
21060,2115,4,95,100,0,57109,100,230276,277059,1.9
21070,2116,4,95,100,0,54722,100,230266,276995,1.9
21080,2117,4,95,100,0,52129,100,230186,276884,1.9
21090,2118,4,95,100,0,49370,100,230177,276832,1.9
21100,2119,4,95,100,0,46610,100,230187,276880,1.9
21110,2120,4,95,100,0,43929,100,230192,276935,1.9
21120,2121,4,95,100,0,41451,100,230261,277031,1.9
21130,2122,4,95,100,0,39259,100,230330,277184,1.9
21140,2123,4,95,100,0,37394,100,230383,277319,1.9
21150,2124,4,95,100,0,35857,100,230410,277486,1.9
21160,2125,4,95,100,0,34649,100,230488,277652,1.9
21170,2126,4,95,100,0,33689,100,230559,277839,1.9
21180,2127,4,95,100,0,32935,100,230628,278043,1.9
21190,2128,4,95,100,0,32388,100,230670,278174,1.9
21200,2129,4,95,100,0,31924,100,230726,278287,1.9
21210,2130,4,95,100,0,31458,100,230800,278456,1.9
21220,2131,4,95,100,0,30905,100,230791,278507,1.9
21230,2132,4,95,100,0,30308,100,230860,278679,1.9
21240,2133,4,95,100,0,29582,100,230880,278710,1.9
21250,2134,4,95,100,0,28725,100,230934,278884,1.9
21260,2135,4,95,100,0,27738,100,230952,278953,1.9
21270,2136,4,95,100,0,26663,100,231005,279058,1.9
21280,2137,4,95,100,0,25414,100,231041,279162,1.9
21290,2138,4,95,100,0,24119,100,231100,279276,1.9
21300,2139,4,95,100,0,22735,100,231132,279344,1.9
21310,2140,4,95,100,0,21392,100,231188,279473,1.9
21320,2141,4,95,100,0,20004,100,231204,279562,1.9
21330,2142,4,95,100,0,18656,100,231263,279698,1.9
21340,2143,4,95,100,0,17351,100,231340,279804,1.9
21350,2144,4,95,100,0,16130,100,231344,279890,1.9
21360,2145,4,95,100,0,14951,100,231372,279996,1.9
21370,2146,4,95,100,0,13902,100,231394,279934,1.9
21380,2147,4,95,100,0,12896,100,231322,279698,1.9
21390,2148,4,95,100,0,11976,100,231129,279329,1.9
21400,2149,4,95,100,0,11142,100,230871,278607,1.9
21410,2150,4,95,100,0,10569,100,230542,277729,1.9
21420,2151,4,95,100,0,10255,100,230148,276768,1.9
21430,2152,4,95,100,0,10330,100,229871,275949,1.9
21440,2153,4,95,100,0,10925,100,229590,275251,1.9
21450,2154,4,95,100,0,12213,100,229425,274895,1.9
21460,2155,4,95,100,0,14238,100,229404,274708,1.9
21470,2156,4,95,100,0,17088,100,229377,274674,1.9
21480,2157,4,95,100,0,20723,100,229435,274834,1.9
21490,2158,4,95,100,0,25016,100,229492,274956,1.9
21500,2159,4,95,100,0,29888,100,229562,275123,1.9
21510,2160,4,95,100,0,35083,100,229622,275186,1.9
21520,2161,4,95,100,0,40383,100,229633,275246,1.9
21530,2162,4,95,100,0,45519,100,229679,275308,1.9
21540,2163,4,95,100,0,50310,100,229644,275304,1.9
21550,2164,4,95,100,0,54533,100,229659,275332,1.9
21560,2165,4,95,100,0,58139,100,229717,275416,1.9
21570,2166,4,95,100,0,60952,100,229770,275541,1.9
21580,2167,4,95,100,0,62258,100,229833,275754,1.9
21590,2168,4,95,100,0,62135,100,229924,276045,1.9
21600,2169,4,95,100,0,61778,100,230035,276382,1.9
21610,2170,4,95,100,0,61419,100,230109,276591,1.9
21620,2171,4,95,100,8,60502,100,230168,276799,1.9
21630,2172,4,95,100,0,59068,100,230229,276868,1.9
21640,2173,4,95,100,0,57156,100,230188,276817,1.9
21650,2174,4,95,100,0,54887,100,230213,276726,1.9
21660,2175,4,95,100,0,52379,100,230151,276676,1.9
21670,2176,4,95,100,0,49750,100,230141,276628,1.9
21680,2177,4,95,100,0,47120,100,230128,276633,1.9
21690,2178,4,95,100,0,44568,100,230139,276614,1.9
21700,2179,4,95,100,0,42212,100,230196,276760,1.9
21710,2180,4,95,100,0,40132,100,230251,276861,1.9
21720,2181,4,95,100,0,38330,100,230319,277058,1.9
21730,2182,4,95,100,0,36845,100,230430,277232,1.9
21740,2183,4,95,100,0,35720,100,230486,277413,1.9
21750,2184,4,97,100,0,34834,100,230497,277562,1.8
21760,2185,4,97,100,0,34147,100,230576,277747,1.8
21770,2186,4,97,100,0,33580,100,230650,277905,1.8
21780,2187,4,97,100,0,33093,100,230677,278031,1.8
21790,2188,4,97,100,0,32604,100,230699,278107,1.8
21800,2189,4,97,100,0,32112,100,230751,278276,1.8
21810,2190,4,97,100,0,31578,100,230790,278374,1.8
21820,2191,4,97,100,0,30878,100,230836,278442,1.8
21830,2192,4,97,100,0,30052,100,230855,278513,1.8
21840,2193,4,97,100,0,29099,100,230895,278587,1.8
21850,2194,4,97,100,0,28019,100,230906,278700,1.8
21860,2195,4,97,100,0,26853,100,230966,278818,1.8
21870,2196,4,97,100,0,25685,100,231015,278914,1.8
21880,2197,4,97,100,0,24430,100,231054,279021,1.8
21890,2198,4,97,100,0,23172,100,231114,279143,1.8
21900,2199,4,97,100,0,21912,100,231150,279278,1.8
21910,2200,4,97,100,0,20650,100,231237,279390,1.8
21920,2201,4,97,100,0,19428,100,231257,279498,1.8
21930,2202,4,97,100,0,18287,100,231304,279539,1.8
21940,2203,4,97,100,0,17229,100,231328,279620,1.8
21950,2204,4,97,100,0,16212,100,231302,279480,1.8
21960,2205,4,97,100,0,15277,100,231159,279180,1.8
21970,2206,4,97,100,0,14426,100,230862,278552,1.8
21980,2207,4,97,100,0,13701,100,230529,277738,1.8
21990,2208,4,97,100,0,13184,100,230226,276764,1.8
22000,2209,4,97,100,0,13003,100,229893,275876,1.8
22010,2210,4,97,100,0,13326,100,229603,275148,1.8
22020,2211,4,97,100,0,14194,100,229405,274626,1.8
22030,2212,4,97,100,0,15819,100,229333,274377,1.8
22040,2213,4,97,100,0,18202,100,229288,274322,1.8
22050,2214,4,97,100,0,21388,100,229309,274377,1.8
22060,2215,4,97,100,0,25255,100,229353,274493,1.8
22070,2216,4,97,100,0,29723,100,229455,274651,1.8
22080,2217,4,97,100,0,34673,100,229503,274789,1.8
22090,2218,4,97,100,0,39725,100,229507,274842,1.8
22100,2219,4,97,100,0,44788,100,229535,274832,1.8
22110,2220,4,97,100,0,49646,100,229532,274846,1.8
22120,2221,4,97,100,0,54039,100,229537,274903,1.8
22130,2222,4,97,100,0,57834,100,229601,274941,1.8
22140,2223,4,97,100,0,60860,100,229619,275042,1.8
22150,2224,4,97,100,0,62258,100,229679,275178,1.8
22160,2225,4,97,100,0,62258,100,229737,275366,1.8
22170,2226,4,97,100,0,62258,100,229815,275675,1.8
22180,2227,4,97,100,0,62258,100,229911,275989,1.8
22190,2228,4,97,100,8,61721,100,230015,276220,1.8
22200,2229,4,97,100,0,60610,100,230128,276338,1.8
22210,2230,4,97,100,0,59040,100,230087,276384,1.8
22220,2231,4,97,100,0,57127,100,230115,276361,1.8
22230,2232,4,97,100,0,54909,100,230064,276236,1.8
22240,2233,4,97,100,0,52538,100,230054,276260,1.8
22250,2234,4,97,100,0,50013,100,229999,276166,1.8
22260,2235,4,97,100,0,47602,100,230042,276205,1.8
22270,2236,4,97,100,0,45304,100,230054,276262,1.8
22280,2237,4,97,100,0,43195,100,230127,276425,1.8
22290,2238,4,97,100,0,41276,100,230177,276534,1.8
22300,2239,4,97,100,0,39700,100,230252,276722,1.8
22310,2240,4,97,100,0,38392,100,230301,276893,1.8
22320,2241,4,97,100,0,37314,100,230397,277100,1.8
22330,2242,4,97,100,0,36504,100,230438,277255,1.8
22340,2243,4,97,100,0,35848,100,230515,277437,1.8
22350,2244,4,97,100,0,35306,100,230583,277516,1.8
22360,2245,4,97,100,0,34763,100,230643,277691,1.8
22370,2246,4,97,100,0,34218,100,230688,277837,1.8
22380,2247,4,97,100,0,33631,100,230719,277945,1.8
22390,2248,4,97,100,0,33003,100,230756,278010,1.8
22400,2249,4,97,100,0,32254,100,230754,278165,1.8
22410,2250,4,97,100,0,31384,100,230809,278160,1.8
22420,2251,4,97,100,0,30392,100,230854,278314,1.8
22430,2252,4,97,100,0,29277,100,230868,278310,1.8
22440,2253,4,97,100,0,28079,100,230909,278418,1.8
22450,2254,4,97,100,0,26838,100,230964,278509,1.8
22460,2255,4,97,100,0,25554,100,230977,278659,1.8
22470,2256,4,97,100,0,24307,100,231032,278710,1.8
22480,2257,4,97,100,0,23057,100,231104,278847,1.8
22490,2258,4,97,100,0,21884,100,231148,279014,1.8
22500,2259,4,97,100,0,20790,100,231249,279115,1.8
22510,2260,4,97,100,0,19734,100,231226,279160,1.8
22520,2261,4,97,100,0,18717,100,231246,279227,1.8
22530,2262,4,97,100,0,17738,100,231308,279142,1.8
22540,2263,4,97,100,0,16880,100,231115,278851,1.8
22550,2264,4,97,100,0,16101,100,230853,278247,1.8
22560,2265,4,97,100,0,15443,100,230555,277488,1.8
22570,2266,4,97,100,0,14985,100,230139,276399,1.8
22580,2267,4,97,100,0,14810,100,229817,275532,1.8
22590,2268,4,97,100,0,15079,100,229539,274812,1.8
22600,2269,4,97,100,0,15913,100,229344,274301,1.8
22610,2270,4,97,100,0,17354,100,229216,274058,1.8
22620,2271,4,97,100,0,19565,100,229236,274017,1.8
22630,2272,4,97,100,0,22549,100,229159,274129,1.8
22640,2273,4,97,100,0,26188,100,229310,274220,1.8
22650,2274,4,97,100,0,30408,100,229368,274412,1.8
22660,2275,4,97,100,0,35049,100,229402,274523,1.8
22670,2276,4,97,100,0,39870,100,229387,274590,1.8
22680,2277,4,97,100,0,44661,100,229432,274668,1.8
22690,2278,4,97,100,0,49173,100,229431,274662,1.8
22700,2279,4,97,100,0,53278,100,229469,274682,1.8
22710,2280,4,97,100,0,56809,100,229422,274727,1.8
22720,2281,4,97,100,0,59682,100,229480,274805,1.8
22730,2282,4,97,100,0,61854,100,229380,274874,1.8
22740,2283,4,97,100,0,62258,100,229614,275148,1.8
22750,2284,4,97,100,0,62258,100,229685,275431,1.8
22760,2285,4,97,100,0,62142,100,229811,275735,1.8
22770,2286,4,97,100,8,61523,100,229888,276002,1.8
22780,2287,4,97,100,0,60363,100,229941,276151,1.8
22790,2288,4,97,100,0,58740,100,229986,276158,1.8
22800,2289,4,97,100,0,56771,100,229969,276133,1.8
22810,2290,4,97,100,0,54571,100,229915,276076,1.8
22820,2291,4,97,100,0,52101,100,229882,275990,1.8
22830,2292,4,97,100,0,49591,100,229894,276013,1.8
22840,2293,4,97,100,0,47079,100,229901,276023,1.8
22850,2294,4,97,100,0,44759,100,229916,276124,1.8
22860,2295,4,97,100,0,42592,100,229987,276251,1.8
22870,2296,4,97,100,0,40692,100,230042,276400,1.8
22880,2297,4,97,100,0,39062,100,230090,276583,1.8
22890,2298,4,97,100,0,37741,100,230157,276772,1.8
22900,2299,4,97,100,0,36612,100,230234,276955,1.8
22910,2300,4,97,100,0,35715,100,230264,277098,1.8
22920,2301,4,97,100,0,34933,100,230347,277271,1.8
22930,2302,4,97,100,0,34305,100,230408,277442,1.8
22940,2303,4,97,100,0,33716,100,230493,277625,1.8
22950,2304,4,97,100,0,33123,100,230511,277748,1.8
22960,2305,4,97,100,0,32450,100,230590,277918,1.8
22970,2306,4,97,100,0,31733,100,230608,277970,1.8
22980,2307,4,97,100,0,30855,100,230652,278119,1.8
22990,2308,4,97,100,0,29854,100,230661,278152,1.8
23000,2309,4,97,100,0,28770,100,230737,278260,1.8
23010,2310,4,97,100,0,27522,100,230745,278351,1.8
23020,2311,4,97,100,0,26231,100,230778,278439,1.8
23030,2312,4,97,100,0,24856,100,230803,278475,1.8
23040,2313,4,97,100,0,23478,100,230900,278616,1.8
23050,2314,4,97,100,0,22097,100,230904,278688,1.8
23060,2315,4,97,100,0,20753,100,230935,278867,1.8
23070,2316,4,97,100,0,19489,100,230980,278939,1.8
23080,2317,4,97,100,0,18304,100,231030,279143,1.8
23090,2318,4,97,100,0,17198,100,231087,279233,1.8
23100,2319,4,97,100,0,16213,100,231128,279358,1.8
23110,2320,4,97,100,0,15227,100,231150,279411,1.8
23120,2321,4,97,100,0,14362,100,231201,279456,1.8
23130,2322,4,97,100,0,13497,100,231150,279302,1.8
23140,2323,4,97,100,0,12754,100,230966,278864,1.8
23150,2324,4,97,100,0,12051,100,230692,278162,1.8
23160,2325,4,97,100,0,11471,100,230337,277249,1.8
23170,2326,4,97,100,0,11134,100,229954,276277,1.8
23180,2327,4,97,100,0,11163,100,229648,275403,1.8
23190,2328,4,97,100,0,11640,100,229402,274796,1.8
23200,2329,4,97,100,0,12686,100,229275,274456,1.8
23210,2330,4,97,100,0,14465,100,229198,274277,1.8
23220,2331,4,97,100,0,16937,100,229241,274331,1.8
23230,2332,4,97,100,0,20147,100,229237,274427,1.8
23240,2333,4,97,100,0,24056,100,229330,274591,1.8
23250,2334,4,97,100,0,28425,100,229357,274739,1.8
23260,2335,4,97,100,0,33177,100,229426,274816,1.8
23270,2336,4,97,100,0,37988,100,229461,274902,1.8
23280,2337,4,97,100,0,42689,100,229442,274905,1.8
23290,2338,4,97,100,0,47068,100,229487,274996,1.8
23300,2339,4,97,100,0,50957,100,229505,275022,1.8
23310,2340,4,97,100,0,54228,100,229535,275134,1.8
23320,2341,4,97,100,0,56838,100,229568,275277,1.8
23330,2342,4,97,100,0,58703,100,229663,275489,1.8
23340,2343,4,97,100,0,59741,100,229793,275803,1.8
23350,2344,4,97,100,0,60116,100,229887,276129,1.8
23360,2345,4,97,100,0,59790,100,230013,276439,1.8
23370,2346,4,97,100,8,58804,100,230048,276575,1.8
23380,2347,4,97,100,0,57242,100,230087,276661,1.8
23390,2348,4,97,100,0,55226,100,230102,276626,1.8
23400,2349,4,97,100,0,52798,100,230068,276529,1.8
23410,2350,4,97,100,0,50162,100,229990,276448,1.8
23420,2351,4,97,100,0,47360,100,230000,276448,1.8
23430,2352,4,97,100,0,44513,100,230002,276322,1.8
23440,2353,4,97,100,0,41869,100,230053,276518,1.8
23450,2354,4,97,100,0,39344,100,230073,276617,1.8
23460,2355,4,97,100,0,37103,100,230126,276788,1.8
23470,2356,4,97,100,0,35190,100,230156,276921,1.8
23480,2357,4,97,100,0,33604,100,230233,277072,1.8
23490,2358,4,97,100,0,32348,100,230338,277329,1.8
23500,2359,4,97,100,0,31339,100,230357,277460,1.8
23510,2360,4,97,100,0,30578,100,230427,277696,1.8
23520,2361,4,97,100,0,29984,100,230510,277853,1.8
23530,2362,4,97,100,0,29472,100,230608,277916,1.8
23540,2363,4,97,100,0,28959,100,230615,278195,1.8
23550,2364,4,97,100,0,28401,100,230704,278363,1.8
23560,2365,4,97,100,0,27715,100,230728,278489,1.8
23570,2366,4,97,100,0,26941,100,230796,278580,1.8
23580,2367,4,97,100,0,25996,100,230844,278680,1.8
23590,2368,4,97,100,0,24919,100,230854,278818,1.8
23600,2369,4,97,100,0,23670,100,230878,278811,1.8
23610,2370,4,97,100,0,22290,100,230910,278862,1.8
23620,2371,4,97,100,0,20821,100,230947,278937,1.8
23630,2372,4,97,100,0,19308,100,230977,278892,1.8
23640,2373,4,97,100,0,17793,100,231015,279114,1.8
23650,2374,4,97,100,0,16362,100,231061,279288,1.8
23660,2375,4,97,100,0,14973,100,231082,279315,1.8
23670,2376,4,97,100,0,13713,100,231129,279451,1.8
23680,2377,4,97,100,0,12539,100,231148,279603,1.8
23690,2378,4,97,100,0,11451,100,231234,279764,1.8
23700,2379,4,97,100,0,10493,100,231285,279891,1.8
23710,2380,4,97,100,0,9664,100,231333,280022,1.8
23720,2381,4,97,100,0,8836,100,231375,280114,1.8
23730,2382,4,97,100,0,8137,100,231438,280192,1.8
23740,2383,4,97,100,0,7483,100,231420,280247,1.8
23750,2384,4,98,100,0,6829,100,231455,280197,1.8
23760,2385,4,98,100,0,6220,100,231345,279884,1.8
23770,2386,4,98,100,0,5568,100,231069,279329,1.8
23780,2387,4,98,100,0,5046,100,230765,278500,1.8
23790,2388,4,98,100,0,4741,100,230401,277454,1.8
23800,2389,4,98,100,0,4609,100,229990,276522,1.8
23810,2390,4,98,100,0,4909,100,229750,275763,1.8
23820,2391,4,98,100,0,5812,100,229549,275293,1.8
23830,2392,4,98,100,0,7404,100,229458,275048,1.8
23840,2393,4,98,100,0,9772,100,229430,274980,1.8
23850,2394,4,98,100,0,12916,100,229495,275066,1.8
23860,2395,4,98,100,0,16838,100,229524,275221,1.8
23870,2396,4,98,100,0,21370,100,229609,275313,1.8
23880,2397,4,98,100,0,26344,100,229662,275484,1.8
23890,2398,4,98,100,0,31593,100,229698,275576,1.8
23900,2399,4,98,100,0,36818,100,229709,275638,1.8
23910,2400,4,98,100,0,41840,100,229741,275662,1.8
23920,2401,4,98,100,0,46435,100,229727,275718,1.8
23930,2402,4,98,100,0,50381,100,229763,275755,1.8
23940,2403,4,98,100,0,53629,100,229779,275864,1.8
23950,2404,4,98,100,0,56132,100,229889,276115,1.8
23960,2405,4,98,100,0,57759,100,229960,276382,1.8
23970,2406,4,98,100,0,58598,100,230085,276681,1.8
23980,2407,4,98,100,0,58648,100,230199,276959,1.8
23990,2408,4,98,100,8,57954,100,230291,277296,1.8
24000,2409,4,98,100,0,56649,100,230353,277374,1.8
24010,2410,4,98,100,0,54731,100,230362,277442,1.8
24020,2411,4,98,100,0,52376,100,230309,277297,1.8
24030,2412,4,98,100,0,49714,100,230294,277222,1.8
24040,2413,4,98,100,0,46786,100,230261,277147,1.8
24050,2414,4,98,100,0,43811,100,230244,277116,1.8
24060,2415,4,98,100,0,40874,100,230260,277162,1.8
24070,2416,4,98,100,0,38151,100,230345,277330,1.8
24080,2417,4,98,100,0,35685,100,230359,277392,1.8
24090,2418,4,98,100,0,33520,100,230375,277585,1.8
24100,2419,4,98,100,0,31746,100,230478,277739,1.8
24110,2420,4,98,100,0,30277,100,230532,277941,1.8
24120,2421,4,98,100,0,29159,100,230631,278148,1.8
24130,2422,4,98,100,0,28306,100,230694,278302,1.8
24140,2423,4,98,100,0,27628,100,230751,278476,1.8
24150,2424,4,98,100,0,27127,100,230798,278694,1.8
24160,2425,4,98,100,0,26625,100,230835,278800,1.8
24170,2426,4,98,100,0,26122,100,230935,278977,1.8
24180,2427,4,98,100,0,25528,100,230987,279130,1.8
24190,2428,4,98,100,0,24841,100,231044,279276,1.8
24200,2429,4,98,100,0,23974,100,231097,279391,1.8
24210,2430,4,98,100,0,22923,100,231139,279511,1.8
24220,2431,4,98,100,0,21690,100,231153,279531,1.8
24230,2432,4,98,100,0,20319,100,231200,279631,1.8
24240,2433,4,98,100,0,18901,100,231197,279654,1.8
24250,2434,4,98,100,0,17346,100,231223,279742,1.8
24260,2435,4,98,100,0,15789,100,231263,279866,1.8
24270,2436,4,98,100,0,14232,100,231298,279940,1.8
24280,2437,4,98,100,0,12720,100,231335,280043,1.8
24290,2438,4,98,100,0,11298,100,231353,280144,1.8
24300,2439,4,98,100,0,10014,100,231424,280203,1.8
24310,2440,4,98,100,0,8822,100,231455,280364,1.8
24320,2441,4,98,100,0,7767,100,231505,280475,1.8
24330,2442,4,98,100,0,6804,100,231592,280665,1.8
24340,2443,4,98,100,0,5979,100,231595,280759,1.8
24350,2444,4,98,100,0,5247,100,231658,280871,1.8
24360,2445,4,98,100,0,4606,100,231695,280924,1.8
24370,2446,4,98,100,0,3967,100,231734,280973,1.8
24380,2447,4,98,100,0,3374,100,231705,280840,1.8
24390,2448,4,98,100,0,3276,100,231508,280479,1.8
24400,2449,4,98,100,0,3276,100,231247,279829,1.8
24410,2450,4,98,100,0,3276,100,230925,278946,1.8
24420,2451,4,98,100,0,3276,100,230584,278019,1.8
24430,2452,4,98,100,0,3448,100,230263,277189,1.8
24440,2453,4,98,100,0,3963,100,229992,276506,1.8
24450,2454,4,98,100,0,4992,100,229851,276066,1.8
24460,2455,4,98,100,0,6750,100,229779,275891,1.8
24470,2456,4,98,100,0,9236,100,229797,275882,1.8
24480,2457,4,98,100,0,12494,100,229780,275932,1.8
24490,2458,4,98,100,0,16483,100,229857,276084,1.8
24500,2459,4,98,100,0,21037,100,229938,276235,1.8
24510,2460,4,98,100,0,25943,100,230003,276415,1.8
24520,2461,4,98,100,0,31036,100,230028,276464,1.8
24530,2462,4,98,100,0,36061,100,230079,276565,1.8
24540,2463,4,98,100,0,40842,100,230066,276613,1.8
24550,2464,4,98,100,0,45111,100,230110,276685,1.8
24560,2465,4,98,100,0,48734,100,230131,276722,1.8
24570,2466,4,98,100,0,51663,100,230216,276892,1.8
24580,2467,4,98,100,0,53809,100,230222,277048,1.8
24590,2468,4,98,100,0,55214,100,230349,277355,1.8
24600,2469,4,98,100,0,55791,100,230424,277696,1.8
24610,2470,4,98,100,0,55626,100,230566,277972,1.8
24620,2471,4,98,100,8,54721,100,230640,278154,1.8
24630,2472,4,98,100,0,53249,100,230706,278285,1.8
24640,2473,4,98,100,0,51253,100,230689,278255,1.8
24650,2474,4,98,100,0,48819,100,230680,278177,1.8
24660,2475,4,98,100,0,46121,100,230646,278056,1.8
24670,2476,4,98,100,0,43288,100,230629,278072,1.8
24680,2477,4,98,100,0,40406,100,230612,278098,1.8
24690,2478,4,98,100,0,37604,100,230626,278175,1.8
24700,2479,4,98,100,0,35014,100,230681,278224,1.8
24710,2480,4,98,100,0,32635,100,230782,278403,1.8
24720,2481,4,98,100,0,30644,100,230823,278544,1.8
24730,2482,4,98,100,0,28913,100,230899,278716,1.8
24740,2483,4,98,100,0,27576,100,230936,278948,1.8
24750,2484,4,98,100,0,26545,100,230985,279087,1.8
24760,2485,4,98,100,0,25779,100,231061,279217,1.8
24770,2486,4,98,100,0,25100,100,231115,279440,1.8
24780,2487,4,98,100,0,24598,100,231167,279567,1.8
24790,2488,4,98,100,0,24140,100,231202,279740,1.8
24800,2489,4,98,100,0,23635,100,231300,279922,1.8
24810,2490,4,98,100,0,23040,100,231367,280051,1.8
24820,2491,4,98,100,0,22310,100,231390,280143,1.8
24830,2492,4,98,100,0,21443,100,231413,280182,1.8
24840,2493,4,98,100,0,20395,100,231430,280305,1.8
24850,2494,4,98,100,0,19211,100,231481,280371,1.8
24860,2495,4,98,100,0,17935,100,231504,280442,1.8
24870,2496,4,98,100,0,16522,100,231562,280553,1.8
24880,2497,4,98,100,0,15064,100,231568,280600,1.8
24890,2498,4,98,100,0,13605,100,231620,280643,1.8
24900,2499,4,98,100,0,12236,100,231649,280774,1.8
24910,2500,4,98,100,0,10868,100,231676,280858,1.8
24920,2501,4,98,100,0,9636,100,231728,280967,1.8
24930,2502,4,98,100,0,8495,100,231803,281106,1.8
24940,2503,4,98,100,0,7491,100,231792,281215,1.8
24950,2504,4,98,100,0,6580,100,231909,281360,1.8
24960,2505,4,98,100,0,5805,100,231911,281506,1.8
24970,2506,4,98,100,0,5076,100,231947,281616,1.8
24980,2507,4,98,100,0,4394,100,231992,281684,1.8
24990,2508,4,98,100,0,3804,100,232040,281698,1.8
25000,2509,4,98,100,0,3321,100,232033,281643,1.8
25010,2510,4,98,100,0,3365,100,231926,281428,1.8
25020,2511,4,98,100,0,3450,100,231729,280941,1.8
25030,2512,4,98,100,0,3532,100,231410,280078,1.8
25040,2513,4,98,100,0,3613,100,231060,279165,1.8
25050,2514,4,98,100,0,3695,100,230663,278211,1.8
25060,2515,4,98,100,0,3987,100,230379,277420,1.8
25070,2516,4,98,100,0,4823,100,230155,276816,1.8
25080,2517,4,98,100,0,6327,100,230031,276539,1.8
25090,2518,4,98,100,0,8582,100,230023,276456,1.8
25100,2519,4,98,100,0,11590,100,230056,276538,1.8
25110,2520,4,98,100,0,15309,100,230100,276644,1.8
25120,2521,4,98,100,0,19660,100,230183,276844,1.8
25130,2522,4,98,100,0,24480,100,230229,276966,1.8
25140,2523,4,98,100,0,29565,100,230330,277130,1.8
25150,2524,4,98,100,0,34624,100,230297,277156,1.8
25160,2525,4,98,100,0,39574,100,230330,277180,1.8
25170,2526,4,98,100,0,44113,100,230333,277168,1.8
25180,2527,4,98,100,0,48067,100,230357,277256,1.8
25190,2528,4,98,100,0,51388,100,230400,277271,1.8
25200,2529,4,98,100,0,53903,100,230431,277419,1.8
25210,2530,4,98,100,0,55655,100,230550,277683,1.8
25220,2531,4,98,100,0,56599,100,230610,277954,1.8
25230,2532,4,98,100,0,56821,100,230748,278275,1.8
25240,2533,4,98,100,8,56363,100,230859,278612,1.8
25250,2534,4,98,100,0,55311,100,230902,278800,1.8
25260,2535,4,98,100,0,53707,100,230940,278836,1.8
25270,2536,4,98,100,0,51634,100,230948,278808,1.8
25280,2537,4,98,100,0,49178,100,230923,278815,1.8
25290,2538,4,98,100,0,46550,100,230901,278737,1.8
